199.995,36.9099
200,45.238
200.005,53.9268
200.01,64.2278
200.015,74.8513
200.02,85.6081
200.025,97.8244
200.03,110.453
200.035,121.806
200.04,132.676
200.045,143.162
200.05,151.581
200.055,158.406
200.06,164.135
200.065,166.359
200.07,164.035
200.075,158.762
200.08,149.962
200.085,136.398
200.09,119.574
200.095,100.288
200.1,78.3701
200.105,56.3037
200.11,36.3413
200.115,17.4146
200.12,-0.199333
200.125,-14.2886
200.13,-25.4385
200.135,-34.9273
200.14,-41.5278
200.145,-45.4763
200.15,-48.9194
200.155,-51.3779
200.16,-51.9012
200.165,-52.3661
200.17,-53.1624
200.175,-52.6199
200.18,-51.5783
200.185,-51.2559
200.19,-50.2989
200.195,-48.95
200.2,-49.206
200.205,-49.8238
200.21,-49.0311
200.215,-48.0935
200.22,-47.3133
200.225,-45.4056
200.23,-43.4197
200.235,-42.6982
200.24,-41.5043
200.245,-39.1
200.25,-37.1869
200.255,-35.5222
200.26,-33.5546
200.265,-33.0262
200.27,-34.0064
200.275,-34.1269
200.28,-33.6919
200.285,-34.3047
200.29,-34.8891
200.295,-35.2771
200.3,-36.9111
200.305,-38.5082
200.31,-38.4873
200.315,-38.0579
200.32,-37.651
200.325,-36.1617
200.33,-34.6163
200.335,-34.3234
200.34,-34.2316
200.345,-34.4909
200.35,-36.2071
200.355,-37.5961
200.36,-36.8619
200.365,-35.2002
200.37,-33.0756
200.375,-29.4506
200.38,-25.0966
200.385,-20.7454
200.39,-14.87
200.395,-8.29494
200.4,-3.68018
200.405,0.360222
200.41,5.57
200.415,9.69333
200.42,11.754
200.425,12.8293
200.43,10.8985
200.435,3.5774
200.44,-6.67272
200.445,-17.2729
200.45,-27.5531
200.455,-35.5123
200.46,-40.0974
200.465,-43.4655
200.47,-46.3055
200.475,-47.2087
200.48,-47.6381
200.485,-49.2758
200.49,-49.3484
200.495,-44.4407
200.5,-32.1134
200.505,-3.20615
200.51,53.2295
200.515,134.076
200.52,218.165
200.525,276.821
200.53,284.074
200.535,235.056
200.54,154.024
200.545,71.3467
200.55,6.2141
200.555,-33.556
200.56,-50.3926
200.565,-54.0392
200.57,-52.1622
200.575,-47.9383
200.58,-44.5437
200.585,-43.3871
200.59,-42.2833
200.595,-40.2897
200.6,-38.4356
200.605,-35.2868
200.61,-29.5487
200.615,-23.2959
200.62,-17.4294
200.625,-10.6552
200.63,-4.035
200.635,1.30333
200.64,7.07087
200.645,13.6413
200.65,19.8229
200.655,26.9044
200.66,35.8929
200.665,44.9826
200.67,54.0668
200.675,64.8496
200.68,76.2499
200.685,87.2318
200.69,99.3982
200.695,112.542
200.7,124.638
200.705,136.082
200.71,147.264
200.715,156.05
200.72,162.012
200.725,166.285
200.73,167.543
200.735,164.381
200.74,157.792
200.745,147.491
200.75,132.249
200.755,113.895
200.76,94.0724
200.765,72.1441
200.77,49.6538
200.775,29.6596
200.78,11.8791
200.785,-4.54222
200.79,-17.7576
200.795,-27.4726
200.8,-35.6598
200.805,-42.0444
200.81,-46.0936
200.815,-49.5461
200.82,-52.295
200.825,-52.6844
200.83,-51.9953
200.835,-51.7166
200.84,-50.576
200.845,-48.5962
200.85,-47.4279
200.855,-46.3738
200.86,-44.5683
200.865,-43.4526
200.87,-42.8769
200.875,-41.2867
200.88,-40.0599
200.885,-40.2693
200.89,-40.052
200.895,-39.3834
200.9,-39.5735
200.905,-39.1826
200.91,-37.5042
200.915,-36.8184
200.92,-37.318
200.925,-36.9298
200.93,-36.2886
200.935,-36.6483
200.94,-36.6658
200.945,-36.0605
200.95,-36.196
200.955,-36.1675
200.96,-35.3473
200.965,-35.5565
200.97,-36.7407
200.975,-37.3279
200.98,-38.2774
200.985,-40.0045
200.99,-40.1983
200.995,-38.9473
201,-38.3941
201.005,-38.0145
201.01,-37.44
201.015,-38.2127
201.02,-39.2931
201.025,-37.7806
201.03,-34.1222
201.035,-29.7947
201.04,-23.7076
201.045,-15.9511
201.05,-8.61895
201.055,-2.23285
201.06,3.73534
201.065,8.64986
201.07,13.1273
201.075,18.1183
201.08,21.2109
201.085,20.2532
201.09,15.8581
201.095,7.44511
201.1,-5.19636
201.105,-18.5514
201.11,-29.5302
201.115,-38.3762
201.12,-44.7364
201.125,-47.6533
201.13,-49.1409
201.135,-50.952
201.14,-52.258
201.145,-53.2905
201.15,-54.1818
201.155,-50.6353
201.16,-35.74
201.165,-0.0711621
201.17,64.2057
201.175,151.379
201.18,235.58
201.185,286.524
201.19,284.361
201.195,230.336
201.2,147.159
201.205,64.4886
201.21,1.95845
201.215,-36.4559
201.22,-54.364
201.225,-58.023
201.23,-55.7488
201.235,-52.8464
201.24,-49.6262
201.245,-46.5795
201.25,-44.8207
201.255,-42.8305
201.26,-39.4269
201.265,-35.9252
201.27,-31.6201
201.275,-24.7301
201.28,-17.2299
201.285,-10.8885
201.29,-4.42438
201.295,2.4853
201.3,8.15761
201.305,13.0869
201.31,18.941
201.315,25.1298
201.32,32.0324
201.325,41.3435
201.33,52.1802
201.335,62.8151
201.34,74.4959
201.345,87.7419
201.35,100.662
201.355,113.406
201.36,126.764
201.365,138.877
201.37,148.993
201.375,158.586
201.38,166.206
201.385,169.454
201.39,169.226
201.395,165.648
201.4,156.737
201.405,142.977
201.41,126.036
201.415,105.579
201.42,82.9197
201.425,61.1207
201.43,40.6574
201.435,20.8497
201.44,3.56182
201.445,-10.5775
201.45,-23.1562
201.455,-33.3438
201.46,-40.0276
201.465,-45.0589
201.47,-49.2646
201.475,-51.5172
201.48,-53.0245
201.485,-54.8484
201.49,-55.2004
201.495,-53.8676
201.5,-52.8075
201.505,-52.0382
201.51,-50.4856
201.515,-49.2767
201.52,-48.8164
201.525,-47.6336
201.53,-46.6198
201.535,-46.9314
201.54,-47.1688
201.545,-46.8384
201.55,-46.9327
201.555,-46.3219
201.56,-44.0305
201.565,-41.8448
201.57,-40.4948
201.575,-38.8057
201.58,-37.5587
201.585,-37.9838
201.59,-38.5097
201.595,-38.5398
201.6,-39.325
201.605,-39.8124
201.61,-39.2649
201.615,-39.5427
201.62,-40.7305
201.625,-40.8843
201.63,-40.7384
201.635,-41.758
201.64,-42.8727
201.645,-43.7413
201.65,-45.421
201.655,-46.8557
201.66,-46.8171
201.665,-46.7211
201.67,-46.6507
201.675,-44.8782
201.68,-41.7508
201.685,-38.5055
201.69,-34.3995
201.695,-29.413
201.7,-24.7586
201.705,-19.575
201.71,-13.6863
201.715,-9.2985
201.72,-5.80827
201.725,-0.604288
201.73,5.08067
201.735,8.51427
201.74,9.44154
201.745,6.9025
201.75,-1.42993
201.755,-13.9771
201.76,-27.0123
201.765,-39.3132
201.77,-49.7418
201.775,-55.9895
201.78,-58.5145
201.785,-59.7391
201.79,-60.1368
201.795,-60.7386
201.8,-63.2185
201.805,-64.9501
201.81,-61.4541
201.815,-50.3308
201.82,-23.0262
201.825,32.6336
201.83,115.267
201.835,204.633
201.84,271.979
201.845,290.267
201.85,249.411
201.855,169.453
201.86,81.9557
201.865,8.69004
201.87,-40.7376
201.875,-65.9779
201.88,-74.4803
201.885,-74.4293
201.89,-69.7201
201.895,-63.522
201.9,-58.6004
201.905,-54.3418
201.91,-49.5301
201.915,-45.7113
201.92,-42.7924
201.925,-38.4136
201.93,-33.1992
201.935,-28.3778
201.94,-22.4417
201.945,-15.2031
201.95,-8.13052
201.955,-0.374312
201.96,8.67797
201.965,16.7392
201.97,23.5122
201.975,31.0998
201.98,39.5235
201.985,48.6825
201.99,60.5297
201.995,74.6631
202,88.7117
202.005,102.968
202.01,117.859
202.015,131.12
202.02,142.18
202.025,152.784
202.03,162.081
202.035,168.548
202.04,173.012
202.045,174.747
202.05,171.633
202.055,164.2
202.06,153.028
202.065,136.337
202.07,114.597
202.075,91.1235
202.08,67.045
202.085,43.0005
202.09,21.7258
202.095,3.92385
202.1,-11.9619
202.105,-25.4838
202.11,-35.9827
202.115,-45.169
202.12,-53.1643
202.125,-58.3103
202.13,-61.5509
202.135,-63.9339
202.14,-63.9271
202.145,-61.9602
202.15,-60.2671
202.155,-58.4932
202.16,-56.2567
202.165,-55.345
202.17,-55.616
202.175,-55.3017
202.18,-55.2565
202.185,-55.9384
202.19,-55.3616
202.195,-53.6645
202.2,-52.7271
202.205,-51.5037
202.21,-49.2575
202.215,-48.1076
202.22,-48.0337
202.225,-47.1751
202.23,-46.3743
202.235,-46.7776
202.24,-47.0222
202.245,-47.0758
202.25,-48.1896
202.255,-48.8497
202.26,-47.9746
202.265,-47.7194
202.27,-48.6897
202.275,-48.996
202.28,-48.8986
202.285,-49.2397
202.29,-48.6974
202.295,-47.6216
202.3,-47.5381
202.305,-47.391
202.31,-46.501
202.315,-46.3869
202.32,-46.3418
202.325,-44.241
202.33,-41.0458
202.335,-37.5215
202.34,-31.9688
202.345,-24.9355
202.35,-19.401
202.355,-15.5675
202.36,-11.8509
202.365,-8.40553
202.37,-5.06409
202.375,-1.45281
202.38,-0.20768
202.385,-3.52566
202.39,-11.0786
202.395,-22.5476
202.4,-36.9402
202.405,-50.4751
202.41,-60.4016
202.415,-67.416
202.42,-71.6743
202.425,-72.7846
202.43,-73.0431
202.435,-74.2656
202.44,-75.5947
202.445,-76.9669
202.45,-76.578
202.455,-68.8022
202.46,-45.6385
202.465,3.19367
202.47,83.0874
202.475,182.776
202.48,269.979
202.485,309.511
202.49,284.302
202.495,207.16
202.5,109.333
202.505,21.7865
202.51,-39.031
202.515,-72.7592
202.52,-86.1685
202.525,-87.0963
202.53,-83.3666
202.535,-79.3318
202.54,-74.8079
202.545,-70.1815
202.55,-66.4403
202.555,-62.3269
202.56,-57.2688
202.565,-52.6465
202.57,-48.2764
202.575,-42.5541
202.58,-36.2188
202.585,-29.9375
202.59,-22.1809
202.595,-13.4426
202.6,-5.41861
202.605,2.99729
202.61,12.3154
202.615,20.691
202.62,28.9609
202.625,39.0122
202.63,49.8051
202.635,60.8294
202.64,73.7658
202.645,87.8331
202.65,100.701
202.655,113.346
202.66,126.603
202.665,138.354
202.67,148.241
202.675,157.387
202.68,164.001
202.685,166.337
202.69,165.005
202.695,159.027
202.7,146.96
202.705,130.677
202.71,112.154
202.715,91.1454
202.72,68.9296
202.725,47.5025
202.73,26.6179
202.735,6.52509
202.74,-10.3395
202.745,-23.7147
202.75,-35.1326
202.755,-44.1345
202.76,-50.4528
202.765,-55.9288
202.77,-60.3134
202.775,-62.0358
202.78,-62.2972
202.785,-61.9657
202.79,-60.045
202.795,-57.9989
202.8,-57.4301
202.805,-56.8492
202.81,-55.4293
202.815,-54.5364
202.82,-53.5406
202.825,-50.9781
202.83,-48.0883
202.835,-45.9316
202.84,-43.2066
202.845,-40.609
202.85,-39.5916
202.855,-38.5365
202.86,-36.2276
202.865,-34.5525
202.87,-33.2482
202.875,-31.1804
202.88,-30.256
202.885,-31.5977
202.89,-33.1611
202.895,-34.4437
202.9,-36.4922
202.905,-38.0411
202.91,-38.3442
202.915,-39.0138
202.92,-39.8177
202.925,-39.4023
202.93,-39.0582
202.935,-39.4659
202.94,-39.1269
202.945,-38.6838
202.95,-39.036
202.955,-38.0785
202.96,-34.7673
202.965,-30.9289
202.97,-26.5252
202.975,-20.3971
202.98,-13.7036
202.985,-7.87829
202.99,-2.07871
202.995,4.01959
203,9.82377
203.005,15.9093
203.01,21.3103
203.015,23.1589
203.02,21.0796
203.025,15.5779
203.03,6.20264
203.035,-5.02967
203.04,-13.9609
203.045,-20.3178
203.05,-25.9119
203.055,-29.6282
203.06,-31.4216
203.065,-33.8208
203.07,-36.4098
203.075,-37.8088
203.08,-38.3473
203.085,-35.3781
203.09,-23.1115
203.095,5.76536
203.1,59.2092
203.105,137.432
203.11,221.197
203.115,279.327
203.12,286.835
203.125,241.09
203.13,162.882
203.135,81.1659
203.14,18.3547
203.145,-19.0847
203.15,-36.1952
203.155,-39.2596
203.16,-34.6774
203.165,-28.6182
203.17,-23.1536
203.175,-18.1317
203.18,-14.998
203.185,-13.6977
203.19,-11.7476
203.195,-8.88908
203.2,-6.1157
203.205,-2.20467
203.21,3.06966
203.215,8.01752
203.22,13.082
203.225,19.1975
203.23,24.7826
203.235,29.5651
203.24,35.5908
203.245,42.7439
203.25,49.7613
203.255,57.6661
203.26,67.225
203.265,76.8055
203.27,86.5209
203.275,97.7372
203.28,108.896
203.285,118.829
203.29,129.265
203.295,140.261
203.3,149.808
203.305,157.962
203.31,164.749
203.315,168
203.32,167.493
203.325,164.577
203.33,158.061
203.335,146.465
203.34,131.386
203.345,113.933
203.35,93.6388
203.355,72.4283
203.36,52.303
203.365,32.6083
203.37,14.1718
203.375,-0.74639
203.38,-12.5473
203.385,-22.5673
203.39,-30.0049
203.395,-35.0762
203.4,-39.6658
203.405,-43.2235
203.41,-44.8805
203.415,-46.1248
203.42,-47.2594
203.425,-47.2298
203.43,-46.9143
203.435,-46.7775
203.44,-44.9727
203.445,-41.7721
203.45,-39.4392
203.455,-37.3763
203.46,-34.7654
203.465,-33.1126
203.47,-32.305
203.475,-30.896
203.48,-30.1444
203.485,-30.6772
203.49,-30.4881
203.495,-29.7349
203.5,-30.0846
203.505,-30.3987
203.51,-29.6227
203.515,-29.5421
203.52,-30.3991
203.525,-30.5236
203.53,-30.5145
203.535,-31.1741
203.54,-31.0556
203.545,-30.4311
203.55,-31.4174
203.555,-33.1991
203.56,-34.3755
203.565,-35.9532
203.57,-37.2673
203.575,-36.1724
203.58,-33.3562
203.585,-30.0072
203.59,-24.8785
203.595,-18.7108
203.6,-13.3939
203.605,-7.58628
203.61,-0.977706
203.615,4.4292
203.62,9.66172
203.625,16.6769
203.63,23.0972
203.635,25.9073
203.64,25.4572
203.645,20.7308
203.65,9.86302
203.655,-3.88488
203.66,-16.4879
203.665,-27.4634
203.67,-35.8499
203.675,-40.214
203.68,-42.548
203.685,-44.8947
203.69,-46.4814
203.695,-48.2304
203.7,-51.9349
203.705,-54.1697
203.71,-50.3438
203.715,-38.1211
203.72,-8.59583
203.725,48.2275
203.73,127.944
203.735,209.587
203.74,265.96
203.745,272.635
203.75,225.409
203.755,147.316
203.76,68.025
203.765,5.9142
203.77,-32.3308
203.775,-48.8566
203.78,-52.5268
203.785,-51.2495
203.79,-47.9261
203.795,-44.5191
203.8,-42.5801
203.805,-40.8657
203.81,-38.3216
203.815,-35.9714
203.82,-32.9094
203.825,-27.4855
203.83,-21.1972
203.835,-15.3431
203.84,-8.75135
203.845,-1.99312
203.85,3.16566
203.855,8.04185
203.86,13.8876
203.865,19.5544
203.87,25.9095
203.875,34.4956
203.88,43.7412
203.885,52.9525
203.89,63.8872
203.895,75.9562
203.9,87.2389
203.905,98.52
203.91,110.209
203.915,120.454
203.92,129.352
203.925,137.926
203.93,144.501
203.935,148.131
203.94,150.1
203.945,149.628
203.95,144.555
203.955,135.534
203.96,123.241
203.965,106.527
203.97,86.6719
203.975,66.3438
203.98,45.7854
203.985,25.5511
203.99,7.94609
203.995,-7.12889
204,-20.8088
204.005,-31.767
204.01,-39.6461
204.015,-46.479
204.02,-52.3517
204.025,-56.0643
204.03,-58.8835
204.035,-61.7348
204.04,-63.6074
204.045,-65.2582
204.05,-67.7965
204.055,-69.275
204.06,-68.3707
204.065,-67.0045
204.07,-65.4067
204.075,-62.3218
204.08,-59.4277
204.085,-57.8457
204.09,-55.8359
204.095,-53.7107
204.1,-53.2078
204.105,-52.995
204.11,-52.1524
204.115,-52.3014
204.12,-53.1241
204.125,-52.9153
204.13,-52.6254
204.135,-52.7627
204.14,-51.719
204.145,-49.8359
204.15,-48.6774
204.155,-47.8551
204.16,-47.0356
204.165,-47.0637
204.17,-46.5756
204.175,-44.0776
204.18,-41.5413
204.185,-39.4692
204.19,-35.5693
204.195,-30.9911
204.2,-27.1901
204.205,-22.4769
204.21,-16.4296
204.215,-10.9597
204.22,-6.03633
204.225,-0.743643
204.23,4.09781
204.235,8.86609
204.24,14.9105
204.245,20.0673
204.25,21.061
204.255,16.65
204.26,6.06429
204.265,-9.58931
204.27,-25.5335
204.275,-37.0767
204.28,-44.3615
204.285,-49.1277
204.29,-51.3748
204.295,-52.7755
204.3,-55.2409
204.305,-57.7433
204.31,-59.7293
204.315,-61.8406
204.32,-60.8782
204.325,-52.4241
204.33,-33.5361
204.335,4.37483
204.34,69.952
204.345,155.133
204.35,233.53
204.355,276.337
204.36,263.54
204.365,200.047
204.37,114.55
204.375,36.6924
204.38,-19.4819
204.385,-52.0201
204.39,-64.3749
204.395,-64.7889
204.4,-61.0364
204.405,-55.7292
204.41,-50.6362
204.415,-47.9031
204.42,-46.0609
204.425,-42.5219
204.43,-38.0551
204.435,-33.8171
204.44,-28.5759
204.445,-22.4952
204.45,-16.7043
204.455,-10.1459
204.46,-2.79
204.465,4.06321
204.47,11.044
204.475,18.8063
204.48,26.092
204.485,32.6546
204.49,40.2446
204.495,48.5331
204.5,56.8453
204.505,67.0701
204.51,79.3025
204.515,91.2359
204.52,103.005
204.525,115.237
204.53,126.254
204.535,135.313
204.54,143.883
204.545,151.132
204.55,155.092
204.555,156.646
204.56,155.839
204.565,150.445
204.57,140.776
204.575,127.745
204.58,109.948
204.585,88.236
204.59,66.0286
204.595,44.2429
204.6,23.2208
204.605,5.3526
204.61,-8.82662
204.615,-21.4514
204.62,-32.3113
204.625,-40.8068
204.63,-48.0817
204.635,-54.2803
204.64,-58.2108
204.645,-60.957
204.65,-63.7126
204.655,-64.8461
204.66,-64.0002
204.665,-62.8886
204.67,-61.6116
204.675,-59.4797
204.68,-57.8755
204.685,-57.13
204.69,-55.4814
204.695,-53.4108
204.7,-52.1821
204.705,-50.9645
204.71,-49.5836
204.715,-49.0435
204.72,-48.5611
204.725,-47.4285
204.73,-47.2065
204.735,-47.7122
204.74,-46.8588
204.745,-45.3853
204.75,-44.7818
204.755,-43.8772
204.76,-42.581
204.765,-42.74
204.77,-43.6409
204.775,-43.9013
204.78,-44.7043
204.785,-46.2223
204.79,-46.554
204.795,-45.7887
204.8,-44.7045
204.805,-41.8558
204.81,-37.2109
204.815,-32.8279
204.82,-28.4959
204.825,-23.4875
204.83,-19.7202
204.835,-17.0257
204.84,-12.7421
204.845,-6.54734
204.85,0.348942
204.855,7.43916
204.86,12.1267
204.865,10.3065
204.87,1.36
204.875,-11.7358
204.88,-26.9222
204.885,-41.5169
204.89,-52.0062
204.895,-58.8482
204.9,-63.6925
204.905,-65.5983
204.91,-65.2156
204.915,-65.2278
204.92,-65.9632
204.925,-66.47
204.93,-65.8205
204.935,-60.3021
204.94,-44.0647
204.945,-9.41592
204.95,50.7663
204.955,134.541
204.96,220.989
204.965,277.95
204.97,280.79
204.975,228.618
204.98,143.94
204.985,57.1581
204.99,-9.08895
204.995,-48.8239
205,-67.3894
205.005,-71.3828
205.01,-67.7795
205.015,-62.7822
205.02,-58.0277
205.025,-53.4222
205.03,-50.6692
205.035,-49.4686
205.04,-47.0779
205.045,-43.3751
205.05,-39.2723
205.055,-33.5771
205.06,-26.776
205.065,-20.8496
205.07,-15.0232
205.075,-8.40981
205.08,-2.50218
205.085,3.1226
205.09,10.8602
205.095,20.1812
205.1,29.5329
205.105,39.6533
205.11,50.3222
205.115,60.4082
205.12,71.2047
205.125,83.7894
205.13,96.284
205.135,108.094
205.14,120.215
205.145,131.318
205.15,139.94
205.155,147.278
205.16,152.787
205.165,154.263
205.17,152.562
205.175,148.5
205.18,139.794
205.185,125.83
205.19,108.33
205.195,87.4559
205.2,63.9497
205.205,41.1505
205.21,20.8603
205.215,1.77322
205.22,-16.0648
205.225,-30.933
205.23,-43.1303
205.235,-53.3438
205.24,-60.5027
205.245,-65.0683
205.25,-68.654
205.255,-70.2865
205.26,-69.7127
205.265,-69.5813
205.27,-70.2078
205.275,-69.7938
205.28,-69.1309
205.285,-68.8003
205.29,-67.2455
205.295,-65.1059
205.3,-64.2991
205.305,-63.6171
205.31,-62.3774
205.315,-61.9075
205.32,-61.6426
205.325,-60.4916
205.33,-59.7498
205.335,-59.9141
205.34,-59.4016
205.345,-58.5663
205.35,-58.3662
205.355,-57.5749
205.36,-55.9034
205.365,-55.3335
205.37,-55.545
205.375,-54.8067
205.38,-54.3568
205.385,-55.1033
205.39,-55.2447
205.395,-54.8098
205.4,-54.9301
205.405,-53.6932
205.41,-50.2414
205.415,-46.5255
205.42,-42.6676
205.425,-37.7677
205.43,-32.8215
205.435,-28.3784
205.44,-23.4922
205.445,-18.6751
205.45,-14.0479
205.455,-7.79803
205.46,-0.860771
205.465,2.65788
205.47,0.854791
205.475,-6.50504
205.48,-19.4847
205.485,-34.9889
205.49,-47.9407
205.495,-56.8457
205.5,-62.8989
205.505,-65.7663
205.51,-66.5163
205.515,-68.1947
205.52,-70.8619
205.525,-73.0879
205.53,-75.7696
205.535,-77.6329
205.54,-73.2609
205.545,-58.9575
205.55,-27.786
205.555,31.0725
205.56,116.576
205.565,207.201
205.57,272.13
205.575,284.724
205.58,237.371
205.585,152.021
205.59,62.7404
205.595,-7.91237
205.6,-53.0274
205.605,-74.0486
205.61,-78.3732
205.615,-75.8104
205.62,-71.1648
205.625,-65.4713
205.63,-60.6312
205.635,-57.1451
205.64,-53.373
205.645,-49.7755
205.65,-47.4263
205.655,-44.5646
205.66,-40.5346
205.665,-36.9128
205.67,-32.7653
205.675,-26.2079
205.68,-18.5683
205.685,-11.1796
205.69,-3.40762
205.695,4.04781
205.7,10.7645
205.705,18.9718
205.71,29.0802
205.715,38.9176
205.72,48.9576
205.725,60.3873
205.73,71.5948
205.735,81.9949
205.74,93.0438
205.745,103.973
205.75,113.554
205.755,122.852
205.76,131.279
205.765,136.162
205.77,137.386
205.775,135.925
205.78,130.241
205.785,119.827
205.79,106.526
205.795,90.6608
205.8,72.2835
205.805,53.4201
205.81,34.3275
205.815,13.617
205.82,-6.88818
205.825,-24.3613
205.83,-39.2529
205.835,-51.7164
205.84,-60.1056
205.845,-65.6186
205.85,-70.2106
205.855,-72.8152
205.86,-73.4185
205.865,-73.9641
205.87,-73.9472
205.875,-72.1932
205.88,-70.4729
205.885,-69.2539
205.89,-66.9723
205.895,-64.5684
205.9,-63.3828
205.905,-62.3317
205.91,-61.2337
205.915,-61.1702
205.92,-60.84
205.925,-59.0146
205.93,-57.6641
205.935,-57.3789
205.94,-56.3592
205.945,-55.3044
205.95,-55.5046
205.955,-55.1654
205.96,-53.5285
205.965,-52.5506
205.97,-52.1514
205.975,-51.3565
205.98,-51.4546
205.985,-52.212
205.99,-51.7011
205.995,-50.5391
206,-49.2979
206.005,-46.1726
206.01,-41.2997
206.015,-36.6674
206.02,-31.8528
206.025,-25.5757
206.03,-19.3936
206.035,-14.2661
206.04,-8.32497
206.045,-1.53458
206.05,5.05876
206.055,11.9211
206.06,17.2814
206.065,17.253
206.07,10.7392
206.075,-0.566464
206.08,-14.7589
206.085,-28.486
206.09,-38.2372
206.095,-44.3385
206.1,-48.363
206.105,-49.8702
206.11,-49.8017
206.115,-50.7409
206.12,-52.5541
206.125,-54.4936
206.13,-56.231
206.135,-53.8994
206.14,-42.1597
206.145,-15.8829
206.15,32.6497
206.155,105.84
206.16,186.803
206.165,245.811
206.17,258.367
206.175,218.859
206.18,145.246
206.185,66.4623
206.19,5.28184
206.195,-31.8121
206.2,-49.354
206.205,-53.6566
206.21,-51.3352
206.215,-48.0341
206.22,-45.0516
206.225,-42.3359
206.23,-41.1263
206.235,-40.2575
206.24,-36.9128
206.245,-31.7122
206.25,-26.0429
206.255,-19.1243
206.26,-11.5463
206.265,-5.21515
206.27,0.620249
206.275,7.01551
206.28,12.719
206.285,17.9014
206.29,24.789
206.295,32.9407
206.3,41.1071
206.305,50.4631
206.31,61.2563
206.315,71.9123
206.32,82.9133
206.325,94.7357
206.33,104.878
206.335,113.017
206.34,121.372
206.345,129.4
206.35,136.178
206.355,142.7
206.36,147.944
206.365,149.151
206.37,146.527
206.375,141.378
206.38,132.647
206.385,120.111
206.39,105.232
206.395,87.7255
206.4,67.8419
206.405,48.5364
206.41,30.7743
206.415,13.4867
206.42,-1.75403
206.425,-13.8825
206.43,-24.5055
206.435,-33.6669
206.44,-40.6704
206.445,-47.0943
206.45,-53.1265
206.455,-56.5107
206.46,-57.4408
206.465,-57.9965
206.47,-57.3027
206.475,-55.0235
206.48,-53.4703
206.485,-52.6085
206.49,-50.7666
206.495,-49.1839
206.5,-48.5615
206.505,-46.8611
206.51,-44.7583
206.515,-44.4206
206.52,-44.4004
206.525,-43.2899
206.53,-42.4032
206.535,-41.6404
206.54,-39.6443
206.545,-37.8515
206.55,-37.5928
206.555,-37.528
206.56,-37.6152
206.565,-39.0612
206.57,-40.6102
206.575,-41.1656
206.58,-41.7787
206.585,-42.3669
206.59,-41.4979
206.595,-39.6047
206.6,-37.1758
206.605,-32.9767
206.61,-27.4894
206.615,-23.0103
206.62,-18.6761
206.625,-13.3216
206.63,-8.90619
206.635,-5.53388
206.64,-0.924634
206.645,4.34682
206.65,8.78413
206.655,12.1753
206.66,11.9545
206.665,4.4062
206.67,-9.08614
206.675,-24.3756
206.68,-39.2489
206.685,-51.0172
206.69,-57.374
206.695,-60.4702
206.7,-62.8456
206.705,-63.9081
206.71,-64.1492
206.715,-65.5062
206.72,-67.1765
206.725,-66.768
206.73,-62.3157
206.735,-50.1255
206.74,-21.7587
206.745,31.0615
206.75,107.097
206.755,189.867
206.76,250.564
206.765,261.704
206.77,217.865
206.775,140.398
206.78,57.7254
206.785,-8.32872
206.79,-48.5463
206.795,-67.024
206.8,-71.6324
206.805,-67.6441
206.81,-60.825
206.815,-56.1715
206.82,-53.61
206.825,-51.5547
206.83,-50.364
206.835,-49.0653
206.84,-45.9781
206.845,-42.3096
206.85,-38.7116
206.855,-33.701
206.86,-27.9221
206.865,-23.0383
206.87,-17.8614
206.875,-11.0458
206.88,-3.98351
206.885,3.40581
206.89,12.4959
206.895,21.596
206.9,29.3444
206.905,37.4631
206.91,46.0733
206.915,54.5495
206.92,64.574
206.925,76.4812
206.93,87.9333
206.935,98.4655
206.94,108.807
206.945,117.241
206.95,122.803
206.955,126.97
206.96,129.154
206.965,127.729
206.97,123.642
206.975,117.093
206.98,105.814
206.985,89.8488
206.99,71.272
206.995,50.187
207,27.5277
207.005,6.68875
207.01,-11.2004
207.015,-27.1664
207.02,-40.301
207.025,-50.3164
207.03,-59.5372
207.035,-68.0081
207.04,-73.9747
207.045,-78.3802
207.05,-81.776
207.055,-82.7646
207.06,-81.9963
207.065,-81.1724
207.07,-79.4584
207.075,-76.7878
207.08,-75.1491
207.085,-74.0715
207.09,-71.8707
207.095,-69.7147
207.1,-68.4766
207.105,-66.5837
207.11,-64.2342
207.115,-62.9399
207.12,-61.8242
207.125,-60.5022
207.13,-60.6497
207.135,-61.6304
207.14,-61.4629
207.145,-61.2406
207.15,-61.8578
207.155,-61.5219
207.16,-60.5467
207.165,-60.7479
207.17,-61.4096
207.175,-61.9303
207.18,-63.3116
207.185,-64.152
207.19,-62.1269
207.195,-58.6794
207.2,-55.2634
207.205,-50.761
207.21,-45.9258
207.215,-41.7454
207.22,-36.7897
207.225,-30.7356
207.23,-25.4633
207.235,-20.6685
207.24,-14.118
207.245,-7.41717
207.25,-4.00181
207.255,-4.75292
207.26,-10.7927
207.265,-22.9764
207.27,-37.749
207.275,-50.7832
207.28,-61.3224
207.285,-68.9903
207.29,-72.8646
207.295,-74.9521
207.3,-77.318
207.305,-78.9575
207.31,-80.0357
207.315,-82.4611
207.32,-84.1083
207.325,-80.3379
207.33,-68.7463
207.335,-41.8918
207.34,12.1775
207.345,93.358
207.35,182.435
207.355,250.29
207.36,269.262
207.365,229
207.37,149.739
207.375,63.4507
207.38,-7.71496
207.385,-54.2216
207.39,-76.3582
207.395,-82.519
207.4,-81.6594
207.405,-77.6443
207.41,-72.8999
207.415,-69.8497
207.42,-67.6259
207.425,-64.702
207.43,-62.1676
207.435,-59.8803
207.44,-55.7756
207.445,-50.3991
207.45,-45.4556
207.455,-40.0925
207.46,-34.1341
207.465,-28.7753
207.47,-22.6267
207.475,-14.307
207.48,-5.53094
207.485,2.94226
207.49,12.3838
207.495,22.0494
207.5,31.1338
207.505,41.1642
207.51,52.0173
207.515,62.1014
207.52,72.3311
207.525,83.401
207.53,93.568
207.535,102.538
207.54,111.609
207.545,119.262
207.55,123.626
207.555,125.54
207.56,124.818
207.565,119.742
207.57,110.979
207.575,99.279
207.58,83.4925
207.585,64.6553
207.59,45.4334
207.595,25.8008
207.6,5.39669
207.605,-13.7
207.61,-30.8614
207.615,-47.0042
207.62,-60.4868
207.625,-69.7689
207.63,-76.4593
207.635,-81.2429
207.64,-83.5064
207.645,-84.6844
207.65,-85.824
207.655,-85.5443
207.66,-84.1717
207.665,-83.4235
207.67,-82.1969
207.675,-79.3915
207.68,-76.6692
207.685,-74.3954
207.69,-71.4074
207.695,-68.6867
207.7,-67.0862
207.705,-65.0746
207.71,-62.7968
207.715,-61.8392
207.72,-61.0678
207.725,-59.3438
207.73,-58.274
207.735,-58.1516
207.74,-57.6892
207.745,-57.7938
207.75,-58.9783
207.755,-59.264
207.76,-58.724
207.765,-59.2662
207.77,-60.2211
207.775,-60.3635
207.78,-60.8851
207.785,-61.7362
207.79,-60.7806
207.795,-58.4136
207.8,-55.4965
207.805,-50.9805
207.81,-45.8227
207.815,-41.4864
207.82,-36.8963
207.825,-31.5416
207.83,-26.8061
207.835,-21.296
207.84,-12.6629
207.845,-3.9012
207.85,0.714904
207.855,0.142805
207.86,-7.04394
207.865,-21.1195
207.87,-37.8015
207.875,-52.4761
207.88,-63.922
207.885,-71.1426
207.89,-73.5285
207.895,-73.6402
207.9,-73.48
207.905,-72.3691
207.91,-71.3657
207.915,-72.4575
207.92,-73.0454
207.925,-68.8405
207.93,-57.9978
207.935,-33.288
207.94,17.3933
207.945,95.1944
207.95,182.157
207.955,249.368
207.96,268.785
207.965,229.737
207.97,152.229
207.975,67.7891
207.98,-1.97125
207.985,-47.4732
207.99,-69.0677
207.995,-75.3251
208,-74.6211
208.005,-70.5956
208.01,-65.9907
208.015,-62.9555
208.02,-60.2192
208.025,-56.4546
208.03,-53.0214
208.035,-49.5108
208.04,-44.0205
208.045,-37.8862
208.05,-32.5155
208.055,-26.561
208.06,-20.2909
208.065,-15.1656
208.07,-9.88391
208.075,-3.24516
208.08,3.34509
208.085,10.0295
208.09,18.0865
208.095,26.2575
208.1,33.8906
208.105,43.1065
208.11,54.1856
208.115,65.8552
208.12,79.0444
208.125,93.4295
208.13,105.838
208.135,115.766
208.14,124.75
208.145,131.56
208.15,135.19
208.155,137.005
208.16,136.446
208.165,131.422
208.17,122.617
208.175,110.498
208.18,93.8666
208.185,74.5037
208.19,55.2915
208.195,36.0257
208.2,16.7651
208.205,-0.410339
208.21,-15.5331
208.215,-29.9038
208.22,-42.3337
208.225,-51.8202
208.23,-59.9681
208.235,-66.872
208.24,-71.3685
208.245,-74.5471
208.25,-76.9882
208.255,-77.2323
208.26,-76.0146
208.265,-75.3286
208.27,-74.4097
208.275,-72.6554
208.28,-71.8838
208.285,-71.9821
208.29,-71.5493
208.295,-71.5984
208.3,-72.3753
208.305,-71.7278
208.31,-69.6067
208.315,-67.3068
208.32,-64.154
208.325,-60.4666
208.33,-58.7173
208.335,-58.5463
208.34,-58.0796
208.345,-58.1528
208.35,-58.9598
208.355,-58.7926
208.36,-58.4621
208.365,-59.5421
208.37,-60.5935
208.375,-60.6386
208.38,-61.269
208.385,-62.4807
208.39,-63.1367
208.395,-64.3579
208.4,-65.9175
208.405,-64.877
208.41,-61.4478
208.415,-57.7919
208.42,-53.3902
208.425,-48.0123
208.43,-43.4844
208.435,-39.7297
208.44,-35.2392
208.445,-30.4536
208.45,-25.1457
208.455,-18.6559
208.46,-13.6388
208.465,-13.2653
208.47,-17.7675
208.475,-26.7753
208.48,-40.0262
208.485,-54.1052
208.49,-64.7601
208.495,-71.9739
208.5,-76.5739
208.505,-78.0187
208.51,-77.9185
208.515,-78.6532
208.52,-79.6768
208.525,-81.016
208.53,-84.2238
208.535,-86.3462
208.54,-81.7819
208.545,-67.0631
208.55,-33.5832
208.555,29.8555
208.56,118.388
208.565,205.492
208.57,259.667
208.575,257.321
208.58,199.667
208.585,114.786
208.59,33.651
208.595,-27.0413
208.6,-63.5597
208.605,-79.1887
208.61,-82.7578
208.615,-82.4913
208.62,-80.545
208.625,-77.6861
208.63,-76.0281
208.635,-74.8775
208.64,-72.0748
208.645,-68.125
208.65,-63.6145
208.655,-57.4707
208.66,-50.487
208.665,-44.1576
208.67,-37.1985
208.675,-28.996
208.68,-21.2253
208.685,-13.7245
208.69,-5.34456
208.695,2.47719
208.7,9.5912
208.705,18.0823
208.71,27.647
208.715,37.0206
208.72,47.7716
208.725,60.4755
208.73,73.1725
208.735,85.6207
208.74,98.4929
208.745,110.021
208.75,119.126
208.755,126.775
208.76,132.255
208.765,134.475
208.77,134.738
208.775,133.026
208.78,127.005
208.785,116.933
208.79,104.227
208.795,88.1384
208.8,69.1396
208.805,49.7442
208.81,30.5149
208.815,11.6102
208.82,-4.88404
208.825,-18.4925
208.83,-30.9013
208.835,-41.5362
208.84,-49.2819
208.845,-55.9011
208.85,-61.8562
208.855,-65.4569
208.86,-67.7305
208.865,-69.9597
208.87,-70.4009
208.875,-68.4049
208.88,-65.6762
208.885,-62.315
208.89,-58.0409
208.895,-54.9312
208.9,-53.8497
208.905,-52.7755
208.91,-51.4648
208.915,-50.9888
208.92,-49.9743
208.925,-48.1352
208.93,-47.5479
208.935,-47.6962
208.94,-46.8899
208.945,-46.0692
208.95,-45.283
208.955,-43.0333
208.96,-40.4166
208.965,-39.1362
208.97,-38.3887
208.975,-38.2755
208.98,-40.3463
208.985,-43.0418
208.99,-44.0877
208.995,-44.5372
209,-45.2683
209.005,-45.5149
209.01,-46.4011
209.015,-48.4136
209.02,-48.42
209.025,-44.7867
209.03,-39.9119
209.035,-34.7261
209.04,-28.8138
209.045,-23.7141
209.05,-19.4742
209.055,-14.9856
209.06,-10.9948
209.065,-7.54919
209.07,-2.34814
209.075,4.56035
209.08,9.59502
209.085,11.2787
209.09,9.16754
209.095,0.914549
209.1,-11.8807
209.105,-24.2943
209.11,-34.2339
209.115,-41.8921
209.12,-46.1752
209.125,-47.7428
209.13,-49.4198
209.135,-51.3461
209.14,-52.7387
209.145,-54.93
209.15,-57.7746
209.155,-57.838
209.16,-52.8297
209.165,-39.6426
209.17,-7.79133
209.175,51.286
209.18,131.26
209.185,210.49
209.19,260.799
209.195,258.249
209.2,203.926
209.205,123.606
209.21,44.436
209.215,-16.6308
209.22,-52.7205
209.225,-67.5892
209.23,-70.4402
209.235,-67.5851
209.24,-62.6875
209.245,-59.2556
209.25,-57.7447
209.255,-56.03
209.26,-54.1493
209.265,-52.4629
209.27,-48.9455
209.275,-43.3084
209.28,-37.6255
209.285,-32.142
209.29,-26.4046
209.295,-22.0485
209.3,-19.3986
209.305,-15.8647
209.31,-10.8592
209.315,-5.68488
209.32,0.509977
209.325,8.51691
209.33,17.1914
209.335,26.8818
209.34,38.6055
209.345,50.778
209.35,62.1925
209.355,74.1929
209.36,85.9353
209.365,96.0148
209.37,105.984
209.375,115.999
209.38,123.74
209.385,128.741
209.39,131.582
209.395,130.703
209.4,125.555
209.405,117.774
209.41,106.873
209.415,91.3194
209.42,73.0249
209.425,54.1398
209.43,34.3078
209.435,14.9199
209.44,-1.98112
209.445,-17.4493
209.45,-31.9383
209.455,-42.9198
209.46,-50.7797
209.465,-57.9006
209.47,-63.4793
209.475,-66.6932
209.48,-69.1497
209.485,-70.8683
209.49,-70.5704
209.495,-69.859
209.5,-69.9643
209.505,-69.4332
209.51,-68.4289
209.515,-68.2905
209.52,-67.6728
209.525,-65.9981
209.53,-65.2347
209.535,-65.1354
209.54,-64.1374
209.545,-63.3281
209.55,-63.3838
209.555,-62.4329
209.56,-60.7918
209.565,-60.4007
209.57,-60.2585
209.575,-59.363
209.58,-58.956
209.585,-58.7365
209.59,-57.7981
209.595,-57.7842
209.6,-59.329
209.605,-60.469
209.61,-61.0432
209.615,-61.8988
209.62,-61.6914
209.625,-60.4454
209.63,-60.5338
209.635,-61.3847
209.64,-60.6928
209.645,-58.8417
209.65,-56.2604
209.655,-52.0173
209.66,-47.0035
209.665,-42.6492
209.67,-37.3541
209.675,-30.8362
209.68,-25.521
209.685,-20.8025
209.69,-14.6402
209.695,-8.83284
209.7,-5.13968
209.705,-3.27438
209.71,-4.39291
209.715,-10.3709
209.72,-19.9753
209.725,-30.8112
209.73,-42.2385
209.735,-52.3291
209.74,-58.677
209.745,-62.5958
209.75,-65.6746
209.755,-67.1709
209.76,-67.8721
209.765,-69.492
209.77,-71.0225
209.775,-70.7444
209.78,-67.2392
209.785,-55.3143
209.79,-23.9714
209.795,35.6985
209.8,120.719
209.805,210.249
209.81,271.713
209.815,277.783
209.82,227.587
209.825,145.758
209.83,61.0257
209.835,-5.87732
209.84,-47.3419
209.845,-68.2774
209.85,-76.7767
209.855,-77.8487
209.86,-75.7809
209.865,-73.6889
209.87,-71.1539
209.875,-67.7591
209.88,-64.6322
209.885,-60.9475
209.89,-55.9954
209.895,-51.7023
209.9,-48.3032
209.905,-43.3575
209.91,-36.9237
209.915,-30.0335
209.92,-21.253
209.925,-11.0141
209.93,-2.61149
209.935,3.76189
209.94,10.1357
209.945,16.5386
209.95,23.6959
209.955,34.0765
209.96,47.0459
209.965,59.7937
209.97,72.2134
209.975,84.4504
209.98,95.5685
209.985,106.62
209.99,118.265
209.995,128.58
210,137.034
210.005,144.107
210.01,148.026
210.015,147.081
210.02,142.459
210.025,134.343
210.03,121.506
210.035,104.747
210.04,85.5176
210.045,63.648
210.05,40.6131
210.055,19.8598
210.06,1.62599
210.065,-15.069
210.07,-28.8062
210.075,-39.1101
210.08,-47.6767
210.085,-53.8901
210.09,-56.8675
210.095,-59.0963
210.1,-61.6186
210.105,-62.9972
210.11,-63.9208
210.115,-65.5614
210.12,-66.2935
210.125,-65.7089
210.13,-65.214
210.135,-64.0079
210.14,-61.3195
210.145,-58.9226
210.15,-56.9265
210.155,-53.6017
210.16,-50.0585
210.165,-47.9339
210.17,-46.0143
210.175,-43.9881
210.18,-43.1741
210.185,-42.6112
210.19,-41.2681
210.195,-40.7648
210.2,-41.3179
210.205,-40.9493
210.21,-39.8262
210.215,-39.2163
210.22,-38.2717
210.225,-37.1598
210.23,-37.5065
210.235,-38.4099
210.24,-38.6058
210.245,-39.6886
210.25,-41.7473
210.255,-42.7688
210.26,-43.2434
210.265,-44.5058
210.27,-44.9448
210.275,-43.7346
210.28,-42.0845
210.285,-39.4791
210.29,-35.1281
210.295,-30.363
210.3,-25.0465
210.305,-17.9864
210.31,-10.7874
210.315,-4.79933
210.32,1.97452
210.325,9.51874
210.33,14.5668
210.335,16.2506
210.34,15.2235
210.345,9.66894
210.35,-0.274135
210.355,-10.9283
210.36,-21.1145
210.365,-30.861
210.37,-37.902
210.375,-41.7903
210.38,-44.549
210.385,-46.2009
210.39,-46.5937
210.395,-48.444
210.4,-52.3999
210.405,-54.317
210.41,-50.4779
210.415,-37.2844
210.42,-4.21825
210.425,56.4475
210.43,138.268
210.435,220.339
210.44,274.029
210.445,273.849
210.45,219.419
210.455,136.889
210.46,54.7171
210.465,-9.13596
210.47,-47.2236
210.475,-63.4189
210.48,-67.5165
210.485,-65.5459
210.49,-60.5008
210.495,-55.9957
210.5,-53.0929
210.505,-50.1346
210.51,-47.3796
210.515,-45.2132
210.52,-41.5494
210.525,-36.2209
210.53,-31.3714
210.535,-26.6865
210.54,-21.448
210.545,-17.2126
210.55,-13.5408
210.555,-7.92076
210.56,-0.656065
210.565,6.93024
210.57,15.681
210.575,25.2504
210.58,33.8239
210.585,42.5151
210.59,52.9857
210.595,63.9054
210.6,74.7948
210.605,86.7274
210.61,98.2685
210.615,108.225
210.62,118.041
210.625,127.369
210.63,134.082
210.635,138.618
210.64,141.391
210.645,139.938
210.65,133.403
210.655,123.422
210.66,109.967
210.665,93.0983
210.67,75.0925
210.675,56.765
210.68,37.6919
210.685,19.789
210.69,4.56106
210.695,-9.46551
210.7,-22.782
210.705,-34.2871
210.71,-44.5968
210.715,-53.9516
210.72,-60.4446
210.725,-64.4694
210.73,-67.9323
210.735,-69.9653
210.74,-69.8379
210.745,-69.5969
210.75,-69.6828
210.755,-68.2778
210.76,-65.8891
210.765,-64.1452
210.77,-62.577
210.775,-61.2459
210.78,-61.3147
210.785,-61.4051
210.79,-60.1038
210.795,-58.9166
210.8,-58.0292
210.805,-55.9912
210.81,-53.8631
210.815,-53.0385
210.82,-52.0608
210.825,-51.0567
210.83,-51.5476
210.835,-52.1894
210.84,-51.6358
210.845,-51.3923
210.85,-51.5597
210.855,-50.484
210.86,-49.0348
210.865,-48.4723
210.87,-47.5421
210.875,-46.6113
210.88,-47.6951
210.885,-49.8521
210.89,-51.4609
210.895,-53.3831
210.9,-54.9819
210.905,-54.1461
210.91,-51.6451
210.915,-48.7021
210.92,-43.8589
210.925,-37.2558
210.93,-30.9353
210.935,-25.1581
210.94,-19.3547
210.945,-13.7108
210.95,-7.50247
210.955,-0.488398
210.96,4.12205
210.965,3.85072
210.97,-0.336966
210.975,-8.79614
210.98,-21.6552
210.985,-35.2269
210.99,-46.178
210.995,-54.6332
211,-60.2483
211.005,-62.0585
211.01,-62.105
211.015,-62.55
211.02,-62.899
211.025,-63.8666
211.03,-66.5828
211.035,-66.8811
211.04,-59.6067
211.045,-39.6347
211.05,4.24581
211.055,78.5744
211.06,170.607
211.065,250.872
211.07,289.258
211.075,267.629
211.08,195.957
211.085,105.712
211.09,25.7456
211.095,-31.1478
211.1,-63.6352
211.105,-76.1593
211.11,-77.361
211.115,-74.4378
211.12,-69.9089
211.125,-65.7944
211.13,-63.9591
211.135,-62.7141
211.14,-60.1715
211.145,-57.3702
211.15,-54.3594
211.155,-49.7204
211.16,-44.2506
211.165,-38.7296
211.17,-31.7474
211.175,-23.7521
211.18,-16.6525
211.185,-9.67406
211.19,-1.85706
211.195,5.66583
211.2,13.3655
211.205,22.8256
211.21,32.753
211.215,42.0519
211.22,52.285
211.225,63.2427
211.23,73.5324
211.235,84.3474
211.24,96.4371
211.245,107.793
211.25,117.671
211.255,126.584
211.26,132.776
211.265,135.104
211.27,135.064
211.275,132.417
211.28,125.455
211.285,115.076
211.29,101.998
211.295,85.1158
211.3,65.6392
211.305,46.2017
211.31,26.5429
211.315,6.41513
211.32,-11.2666
211.325,-26.2167
211.33,-40.5152
211.335,-53.369
211.34,-63.8694
211.345,-73.2887
211.35,-80.774
211.355,-84.039
211.36,-83.7832
211.365,-82.0426
211.37,-80.4176
211.375,-80.0542
211.38,-80.8188
211.385,-80.6677
211.39,-77.6246
211.395,-73.4521
211.4,-70.552
211.405,-68.843
211.41,-68.0948
211.415,-66.3511
211.42,-61.3271
211.425,-56.2918
211.43,-55.5159
211.435,-57.7298
211.44,-59.5386
211.445,-61.0027
211.45,-61.5635
211.455,-58.3176
211.46,-53.5797
211.465,-51.9622
211.47,-53.1898
211.475,-54.8077
211.48,-55.7396
211.485,-55.6693
211.49,-55.5102
211.495,-56.1907
211.5,-57.5424
211.505,-58.4242
211.51,-59.383
211.515,-60.6021
211.52,-59.3305
211.525,-54.7058
211.53,-49.0541
211.535,-43.561
211.54,-38.3233
211.545,-34.7506
211.55,-32.5559
211.555,-28.9165
211.56,-22.9541
211.565,-15.5447
211.57,-7.44537
211.575,-1.10971
211.58,-0.161233
211.585,-3.72176
211.59,-10.1007
211.595,-20.2127
211.6,-33.0585
211.605,-45.3989
211.61,-55.8453
211.615,-64.0552
211.62,-68.521
211.625,-69.421
211.63,-69.2703
211.635,-68.6917
211.64,-68.1297
211.645,-70.4051
211.65,-73.9789
211.655,-71.6972
211.66,-57.6441
211.665,-23.5714
211.67,39.6229
211.675,126.435
211.68,210.631
211.685,261.352
211.69,256.847
211.695,198.603
211.7,113.345
211.705,32.1853
211.71,-27.732
211.715,-63.3223
211.72,-78.1206
211.725,-79.6798
211.73,-76.5131
211.735,-72.2297
211.74,-67.1534
211.745,-63.1787
211.75,-60.9138
211.755,-58.6058
211.76,-56.6907
211.765,-55.3264
211.77,-51.8394
211.775,-45.776
211.78,-39.5647
211.785,-33.8118
211.79,-27.342
211.795,-21.035
211.8,-15.1641
211.805,-8.14259
211.81,-0.26416
211.815,7.62197
211.82,16.988
211.825,28.224
211.83,39.3022
211.835,50.0753
211.84,61.339
211.845,71.7748
211.85,81.1653
211.855,91.0765
211.86,100.916
211.865,109.491
211.87,117.66
211.875,124.658
211.88,127.926
211.885,127.694
211.89,125.165
211.895,119.119
211.9,109.265
211.905,96.9156
211.91,81.2592
211.915,61.9585
211.92,41.9245
211.925,22.4463
211.93,2.63139
211.935,-15.9929
211.94,-31.7482
211.945,-45.4737
211.95,-57.0006
211.955,-65.3806
211.96,-72.079
211.965,-78.1881
211.97,-82.1205
211.975,-83.969
211.98,-85.7511
211.985,-86.5718
211.99,-85.0796
211.995,-82.889
212,-80.8479
212.005,-77.9767
212.01,-75.3131
212.015,-73.9755
212.02,-72.4573
212.025,-70.5187
212.03,-69.4479
212.035,-67.7555
212.04,-64.4443
212.045,-61.8427
212.05,-60.7931
212.055,-59.8402
212.06,-59.8069
212.065,-61.3159
212.07,-62.3735
212.075,-62.733
212.08,-63.835
212.085,-64.5001
212.09,-63.728
212.095,-63.217
212.1,-63.1001
212.105,-61.648
212.11,-59.3679
212.115,-57.4231
212.12,-54.4382
212.125,-50.8236
212.13,-48.153
212.135,-45.003
212.14,-40.3289
212.145,-35.7442
212.15,-31.0921
212.155,-24.5742
212.16,-17.7059
212.165,-12.9103
212.17,-11.0267
212.175,-14.6678
212.18,-25.8308
212.185,-40.7104
212.19,-54.2146
212.195,-64.7773
212.2,-71.827
212.205,-74.9769
212.21,-76.6184
212.215,-78.7163
212.22,-80.2086
212.225,-81.1319
212.23,-83.0803
212.235,-84.8102
212.24,-83.0198
212.245,-75.5597
212.25,-57.1957
212.255,-16.6274
212.26,52.7538
212.265,141.484
212.27,223.873
212.275,268.715
212.28,254.398
212.285,189.27
212.29,103.308
212.295,23.7471
212.3,-33.438
212.305,-64.3777
212.31,-76.378
212.315,-78.5515
212.32,-75.1472
212.325,-69.5814
212.33,-65.7311
212.335,-63.2422
212.34,-59.9263
212.345,-56.1011
212.35,-51.4838
212.355,-44.8529
212.36,-37.5306
212.365,-30.6902
212.37,-23.1776
212.375,-15.664
212.38,-10.0476
212.385,-4.96557
212.39,1.2939
212.395,7.46659
212.4,13.7179
212.405,21.8888
212.41,30.8899
212.415,39.8365
212.42,50.6737
212.425,63.3965
212.43,75.6265
212.435,87.8961
212.44,100.859
212.445,112.457
212.45,122.552
212.455,132.813
212.46,141.953
212.465,147.883
212.47,151.131
212.475,151.501
212.48,147.494
212.485,139.796
212.49,129.239
212.495,114.372
212.5,96.0957
212.505,76.9184
212.51,56.5139
212.515,35.158
212.52,16.0869
212.525,0.403624
212.53,-13.1881
212.535,-24.4636
212.54,-33.4722
212.545,-42.1417
212.55,-49.9462
212.555,-54.6092
212.56,-57.0998
212.565,-58.5509
212.57,-58.384
212.575,-58.0666
212.58,-58.8859
212.585,-58.8095
212.59,-57.0318
212.595,-55.7023
212.6,-54.721
212.605,-52.6074
212.61,-50.5786
212.615,-49.2679
212.62,-46.8481
212.625,-43.9508
212.63,-42.6121
212.635,-41.6237
212.64,-39.718
212.645,-38.4923
212.65,-38.3989
212.655,-37.9918
212.66,-37.6225
212.665,-37.5527
212.67,-36.0381
212.675,-33.0373
212.68,-30.4385
212.685,-27.8937
212.69,-24.3458
212.695,-20.9376
212.7,-17.4905
212.705,-12.9571
212.71,-9.16547
212.715,-6.79133
212.72,-3.08465
212.725,2.02698
212.73,5.88536
212.735,7.49971
212.74,5.55903
212.745,-2.54362
212.75,-14.9389
212.755,-27.3463
212.76,-38.4109
212.765,-47.2427
212.77,-52.3801
212.775,-55.1126
212.78,-57.9137
212.785,-60.4845
212.79,-62.6645
212.795,-66.4324
212.8,-71.342
212.805,-74.0699
212.81,-72.3988
212.815,-63.5118
212.82,-39.2784
212.825,9.3203
212.83,82.2627
212.835,164.282
212.84,227.736
212.845,245.345
212.85,209.099
212.855,138.55
212.86,61.0276
212.865,-3.32977
212.87,-44.5499
212.875,-64.5693
212.88,-71.3425
212.885,-70.5837
212.89,-66.3154
212.895,-62.6175
212.9,-60.3335
212.905,-58.0106
212.91,-56.1467
212.915,-54.4158
212.92,-50.5356
212.925,-45.3228
212.93,-40.8309
212.935,-36.2351
212.94,-30.7909
212.945,-26.0195
212.95,-21.9133
212.955,-17.4738
212.96,-13.6919
212.965,-10.3998
212.97,-4.66566
212.975,4.46249
212.98,15.1975
212.985,27.2927
212.99,40.5243
212.995,53.1023
213,65.3948
213.005,78.3483
213.01,90.1244
213.015,99.9357
213.02,109.347
213.025,117.863
213.03,123.725
213.035,127.531
213.04,128.847
213.045,125.263
213.05,117.033
213.055,105.995
213.06,91.2681
213.065,72.5156
213.07,52.5122
213.075,32.3384
213.08,11.8345
213.085,-6.59531
213.09,-21.6995
213.095,-35.6047
213.1,-47.9662
213.105,-56.7553
213.11,-63.1762
213.115,-68.5664
213.12,-72.0374
213.125,-74.1629
213.13,-76.5921
213.135,-78.4513
213.14,-78.8488
213.145,-79.0406
213.15,-78.8375
213.155,-77.1517
213.16,-75.6639
213.165,-75.2036
213.17,-74.0163
213.175,-72.4564
213.18,-71.7759
213.185,-70.5714
213.19,-68.3639
213.195,-66.8217
213.2,-65.4755
213.205,-63.0196
213.21,-60.8815
213.215,-60.1327
213.22,-59.3268
213.225,-58.5858
213.23,-59.1957
213.235,-59.2778
213.24,-56.8531
213.245,-53.7775
213.25,-50.5982
213.255,-46.3241
213.26,-42.8517
213.265,-41.0449
213.27,-38.413
213.275,-34.6871
213.28,-31.5382
213.285,-27.1628
213.29,-19.7664
213.295,-12.4602
213.3,-8.43857
213.305,-8.60379
213.31,-15.4846
213.315,-29.1039
213.32,-44.2227
213.325,-57.2035
213.33,-67.4792
213.335,-73.7438
213.34,-76.0849
213.345,-77.9281
213.35,-80.6931
213.355,-82.6688
213.36,-84.209
213.365,-86.5692
213.37,-88.2208
213.375,-86.8524
213.38,-80.6449
213.385,-61.771
213.39,-18.0082
213.395,53.3879
213.4,140.033
213.405,217.001
213.41,255.218
213.415,236.243
213.42,170.878
213.425,87.2
213.43,10.2436
213.435,-44.3531
213.44,-73.2237
213.445,-83.8424
213.45,-84.8591
213.455,-81.0668
213.46,-76.6294
213.465,-74.0586
213.47,-71.8231
213.475,-68.9405
213.48,-66.1481
213.485,-62.3749
213.49,-56.8002
213.495,-51.0517
213.5,-45.7423
213.505,-39.706
213.51,-33.7193
213.515,-28.4445
213.52,-22.0547
213.525,-14.5745
213.53,-7.68436
213.535,-0.356394
213.54,8.38919
213.545,17.0712
213.55,25.7203
213.555,35.8644
213.56,46.5616
213.565,56.819
213.57,68.3189
213.575,81.0317
213.58,92.6678
213.585,103.531
213.59,114.123
213.595,122.154
213.6,127.033
213.605,130.053
213.61,129.833
213.615,124.771
213.62,115.95
213.625,103.564
213.63,86.8012
213.635,67.6596
213.64,48.4074
213.645,28.3801
213.65,8.01364
213.655,-10.2466
213.66,-26.2731
213.665,-40.5382
213.67,-51.5745
213.675,-59.4356
213.68,-66.2535
213.685,-71.8803
213.69,-75.653
213.695,-79.1297
213.7,-82.1681
213.705,-83.3836
213.71,-83.6463
213.715,-83.7023
213.72,-82.3986
213.725,-80.3606
213.73,-79.3725
213.735,-78.204
213.74,-75.6244
213.745,-73.2209
213.75,-71.3617
213.755,-68.91
213.76,-67.1859
213.765,-67.1272
213.77,-66.9171
213.775,-66.2493
213.78,-66.4306
213.785,-66.3098
213.79,-65.0337
213.795,-64.7225
213.8,-65.5387
213.805,-65.2205
213.81,-63.7074
213.815,-61.8104
213.82,-58.2775
213.825,-53.2842
213.83,-48.9192
213.835,-44.1493
213.84,-37.8387
213.845,-32.4032
213.85,-28.2982
213.855,-22.9872
213.86,-16.9342
213.865,-12.3965
213.87,-9.90633
213.875,-11.3367
213.88,-19.676
213.885,-33.0048
213.89,-46.99
213.895,-59.7462
213.9,-69.4537
213.905,-74.4911
213.91,-76.7888
213.915,-78.616
213.92,-79.5327
213.925,-80.3389
213.93,-83.059
213.935,-86.6109
213.94,-89.1752
213.945,-89.9689
213.95,-85.3913
213.955,-66.1262
213.96,-20.8879
213.965,54.2503
213.97,147.033
213.975,227.871
213.98,265.165
213.985,243.469
213.99,175.323
213.995,88.7674
214,10.7117
214.005,-43.3314
214.01,-72.819
214.015,-84.6783
214.02,-85.4185
214.025,-81.4412
214.03,-77.7575
214.035,-74.3381
214.04,-70.1695
214.045,-66.8477
214.05,-64.1306
214.055,-60.02
214.06,-55.3391
214.065,-51.0782
214.07,-45.7338
214.075,-39.2045
214.08,-32.9113
214.085,-25.871
214.09,-17.4697
214.095,-9.97811
214.1,-3.55901
214.105,3.63335
214.11,11.1352
214.115,18.5048
214.12,27.566
214.125,38.2938
214.13,49.2338
214.135,61.1986
214.14,74.4844
214.145,87.0784
214.15,98.6867
214.155,110.14
214.16,119.452
214.165,125.124
214.17,128.646
214.175,130.009
214.18,127.782
214.185,122.636
214.19,114.696
214.195,102.007
214.2,85.3099
214.205,67.1917
214.21,47.8091
214.215,27.6028
214.22,8.9098
214.225,-8.27514
214.23,-25.2339
214.235,-40.1642
214.24,-51.5624
214.245,-60.7306
214.25,-67.6995
214.255,-71.6183
214.26,-74.2328
214.265,-76.7717
214.27,-77.6866
214.275,-77.2514
214.28,-77.2234
214.285,-76.5351
214.29,-74.5248
214.295,-73.1384
214.3,-72.18
214.305,-69.7542
214.31,-66.8537
214.315,-64.8071
214.32,-62.4995
214.325,-60.3819
214.33,-59.8356
214.335,-59.1158
214.34,-56.9839
214.345,-55.0998
214.35,-53.7704
214.355,-52.0374
214.36,-51.4561
214.365,-52.9818
214.37,-54.3749
214.375,-54.9414
214.38,-55.7661
214.385,-55.3326
214.39,-52.5188
214.395,-48.8659
214.4,-44.4538
214.405,-38.8653
214.41,-33.6128
214.415,-29.2543
214.42,-24.3257
214.425,-18.9004
214.43,-13.3772
214.435,-6.06345
214.44,2.25404
214.445,7.20548
214.45,6.355
214.455,-0.593223
214.46,-13.5585
214.465,-29.5556
214.47,-43.3483
214.475,-52.913
214.48,-59.441
214.485,-62.8379
214.49,-63.8516
214.495,-65.5144
214.5,-68.1804
214.505,-70.4424
214.51,-73.5646
214.515,-77.9753
214.52,-79.1837
214.525,-73.5484
214.53,-56.2684
214.535,-14.9408
214.54,57.5468
214.545,148.327
214.55,229.105
214.555,270.899
214.56,254.469
214.565,188.13
214.57,101.772
214.575,22.6069
214.58,-35.2521
214.585,-67.8656
214.59,-79.9605
214.595,-81.1281
214.6,-77.8358
214.605,-72.6413
214.61,-68.5438
214.615,-66.4896
214.62,-64.3853
214.625,-61.9129
214.63,-59.957
214.635,-56.9748
214.64,-52.179
214.645,-47.4768
214.65,-42.8747
214.655,-37.04
214.66,-30.7149
214.665,-23.9473
214.67,-15.1581
214.675,-5.28502
214.68,3.57338
214.685,12.5578
214.69,22.8331
214.695,33.2193
214.7,44.1422
214.705,56.9791
214.71,70.2199
214.715,82.3285
214.72,94.0677
214.725,105.103
214.73,114.38
214.735,123.147
214.74,131.487
214.745,136.821
214.75,138.841
214.755,138.905
214.76,135.77
214.765,128.117
214.77,117.007
214.775,102.367
214.78,83.873
214.785,63.8806
214.79,44.0133
214.795,23.6764
214.8,4.33015
214.805,-11.692
214.81,-25.1525
214.815,-36.683
214.82,-45.0362
214.825,-50.847
214.83,-55.7465
214.835,-58.8393
214.84,-59.7508
214.845,-60.4879
214.85,-60.7642
214.855,-59.3226
214.86,-57.7408
214.865,-56.8996
214.87,-55.4885
214.875,-54.1422
214.88,-54.0144
214.885,-53.229
214.89,-50.7658
214.895,-48.7204
214.9,-47.582
214.905,-46.3556
214.91,-46.1062
214.915,-47.0741
214.92,-47.5038
214.925,-47.9104
214.93,-49.5842
214.935,-50.7541
214.94,-50.4416
214.945,-50.432
214.95,-50.5503
214.955,-49.5719
214.96,-48.8314
214.965,-48.3482
214.97,-46.4648
214.975,-43.8048
214.98,-41.3961
214.985,-37.8929
214.99,-32.2721
214.995,-26.2317
215,-21.0693
215.005,-15.5583
215.01,-9.33184
215.015,-2.83498
215.02,4.17098
215.025,9.46352
215.03,9.29926
215.035,3.14402
215.04,-7.50922
215.045,-21.5915
215.05,-36.1494
215.055,-47.2613
215.06,-54.8983
215.065,-60.7315
215.07,-64.3261
215.075,-66.543
215.08,-69.2421
215.085,-71.4112
215.09,-72.1493
215.095,-72.988
215.1,-72.4371
215.105,-65.6815
215.11,-47.9759
215.115,-9.66338
215.12,59.2184
215.125,151.449
215.13,238.464
215.135,288.998
215.14,282.051
215.145,220.65
215.15,132.551
215.155,49.1938
215.16,-12.4956
215.165,-49.7682
215.17,-66.3868
215.175,-70.0561
215.18,-68.6665
215.185,-65.1661
215.19,-60.5999
215.195,-57.2993
215.2,-54.9704
215.205,-51.2969
215.21,-46.8366
215.215,-42.6614
215.22,-37.0744
215.225,-30.0305
215.23,-23.5697
215.235,-17.2611
215.24,-10.3578
215.245,-4.33881
215.25,1.12771
215.255,8.47342
215.26,17.3522
215.265,26.4205
215.27,36.3314
215.275,46.6969
215.28,56.1757
215.285,66.0459
215.29,77.5709
215.295,89.3071
215.3,100.852
215.305,113.34
215.31,125.152
215.315,134.274
215.32,141.329
215.325,146.029
215.33,147.069
215.335,145.314
215.34,141.481
215.345,133.737
215.35,122.018
215.355,108.217
215.36,91.8919
215.365,72.678
215.37,52.9934
215.375,34.1334
215.38,15.9879
215.385,0.329076
215.39,-11.9854
215.395,-22.9326
215.4,-32.8212
215.405,-40.2469
215.41,-46.1297
215.415,-51.3285
215.42,-54.3165
215.425,-55.2185
215.43,-55.859
215.435,-55.9454
215.44,-55.0538
215.445,-54.8333
215.45,-55.186
215.455,-54.4288
215.46,-53.1582
215.465,-51.9696
215.47,-49.4631
215.475,-46.3365
215.48,-44.8933
215.485,-44.287
215.49,-43.313
215.495,-43.0091
215.5,-43.0657
215.505,-41.8877
215.51,-40.4284
215.515,-40.2252
215.52,-40.0627
215.525,-39.6598
215.53,-40.4274
215.535,-41.2909
215.54,-41.0826
215.545,-40.8003
215.55,-39.4332
215.555,-35.2148
215.56,-29.5356
215.565,-24.3067
215.57,-18.9265
215.575,-13.513
215.58,-9.6923
215.585,-6.5374
215.59,-2.10845
215.595,3.32699
215.6,9.69307
215.605,16.5814
215.61,19.8997
215.615,16.2804
215.62,6.62989
215.625,-6.98647
215.63,-22.386
215.635,-35.1699
215.64,-42.7849
215.645,-46.951
215.65,-49.2662
215.655,-49.956
215.66,-51.0329
215.665,-53.4613
215.67,-55.5565
215.675,-57.5087
215.68,-59.5201
215.685,-57.2307
215.69,-45.5587
215.695,-17.48
215.7,37.8394
215.705,121.452
215.71,211.795
215.715,276.603
215.72,290.107
215.725,246.275
215.73,165.357
215.735,79.1976
215.74,10.9839
215.745,-32.7128
215.75,-54.3365
215.755,-59.6084
215.76,-56.8847
215.765,-52.1633
215.77,-46.7305
215.775,-42.0679
215.78,-39.8489
215.785,-38.2276
215.79,-35.318
215.795,-32.4084
215.8,-29.4139
215.805,-24.3279
215.81,-17.8999
215.815,-11.4627
215.82,-4.17405
215.825,3.37576
215.83,9.58669
215.835,15.8482
215.84,23.2723
215.845,30.5573
215.85,38.416
215.855,48.88
215.86,60.7401
215.865,72.2702
215.87,84.2631
215.875,96.4417
215.88,107.499
215.885,118.272
215.89,129.108
215.895,138.431
215.9,146.507
215.905,154.227
215.91,159.787
215.915,161.678
215.92,160.672
215.925,155.925
215.93,145.565
215.935,130.569
215.94,112.343
215.945,90.8346
215.95,68.1306
215.955,47.4518
215.96,28.6918
215.965,11.2219
215.97,-3.52819
215.975,-15.7651
215.98,-26.7351
215.985,-35.0989
215.99,-40.2956
215.995,-44.4158
216,-47.7155
216.005,-49.115
216.01,-50.0776
216.015,-51.5358
216.02,-51.8443
216.025,-51.021
216.03,-50.4586
216.035,-49.2866
216.04,-46.9888
216.045,-45.3734
216.05,-44.3973
216.055,-42.6227
216.06,-41.1725
216.065,-40.851
216.07,-40.1269
216.075,-39.1748
216.08,-39.2274
216.085,-39.031
216.09,-38.0424
216.095,-38.2072
216.1,-39.1976
216.105,-39.1126
216.11,-39.0172
216.115,-39.8818
216.12,-40.148
216.125,-39.8669
216.13,-40.3112
216.135,-40.279
216.14,-38.683
216.145,-36.8242
216.15,-34.286
216.155,-29.6208
216.16,-24.8108
216.165,-20.7346
216.17,-15.6014
216.175,-10.191
216.18,-5.83346
216.185,-0.477204
216.19,6.87663
216.195,13.3119
216.2,16.9955
216.205,17.2754
216.21,11.0388
216.215,-2.03122
216.22,-17.051
216.225,-30.6328
216.23,-42.013
216.235,-49.3684
216.24,-52.5147
216.245,-53.9513
216.25,-54.5534
216.255,-54.2978
216.26,-55.2219
216.265,-58.299
216.27,-61.3927
216.275,-61.7451
216.28,-56.3923
216.285,-37.4223
216.29,6.88111
216.295,80.5577
216.3,172.744
216.305,256.353
216.31,298.796
216.315,280.707
216.32,213.39
216.325,126.118
216.33,45.6604
216.335,-11.704
216.34,-43.3949
216.345,-56.8747
216.35,-59.2695
216.355,-55.1684
216.36,-50.1197
216.365,-46.9467
216.37,-44.1985
216.375,-41.4437
216.38,-39.1985
216.385,-35.6505
216.39,-29.9868
216.395,-24.0734
216.4,-17.8534
216.405,-10.5913
216.41,-4.08612
216.415,0.963447
216.42,6.33154
216.425,12.2538
216.43,17.9037
216.435,24.8962
216.44,34.0842
216.445,43.8311
216.45,54.493
216.455,67.2867
216.46,80.2634
216.465,92.1706
216.47,104.438
216.475,116.641
216.48,127.435
216.485,138.014
216.49,148.585
216.495,156.685
216.5,162.02
216.505,165.63
216.51,165.931
216.515,161.894
216.52,154.67
216.525,143.602
216.53,127.624
216.535,108.748
216.54,88.4641
216.545,66.3086
216.55,44.1071
216.555,24.4177
216.56,6.87212
216.565,-8.58113
216.57,-20.1481
216.575,-28.591
216.58,-35.8194
216.585,-41.1651
216.59,-44.3745
216.595,-47.1787
216.6,-49.331
216.605,-49.8349
216.61,-50.4531
216.615,-51.8057
216.62,-51.7316
216.625,-50.3904
216.63,-49.922
216.635,-49.4419
216.64,-47.5099
216.645,-45.6631
216.65,-44.3523
216.655,-42.226
216.66,-40.5326
216.665,-40.4208
216.67,-39.9143
216.675,-38.5905
216.68,-37.9889
216.685,-37.1393
216.69,-35.1286
216.695,-33.9129
216.7,-33.9335
216.705,-33.7485
216.71,-34.2551
216.715,-36.1703
216.72,-37.5263
216.725,-37.933
216.73,-38.7704
216.735,-38.5954
216.74,-36.3321
216.745,-33.6934
216.75,-30.8005
216.755,-26.4471
216.76,-21.6355
216.765,-17.5047
216.77,-12.8144
216.775,-7.28144
216.78,-1.79576
216.785,4.45245
216.79,10.9564
216.795,13.7375
216.8,10.3665
216.805,1.33899
216.81,-12.3304
216.815,-28.2152
216.82,-41.3957
216.825,-49.809
216.83,-55.2358
216.835,-58.0963
216.84,-58.8362
216.845,-60.1934
216.85,-62.8556
216.855,-65.684
216.86,-69.4341
216.865,-72.9978
216.87,-70.8316
216.875,-58.8462
216.88,-31.3745
216.885,22.4328
216.89,104.749
216.895,197.01
216.9,268.78
216.905,292.737
216.91,256.896
216.915,178.338
216.92,89.7664
216.925,15.8683
216.93,-33.8905
216.935,-59.4986
216.94,-67.0866
216.945,-65.8265
216.95,-61.045
216.955,-54.3845
216.96,-48.6389
216.965,-45.1208
216.97,-41.6817
216.975,-37.5159
216.98,-33.6042
216.985,-29.0111
216.99,-23.0815
216.995,-17.6894
217,-13.0349
217.005,-7.5261
217.01,-1.4754
217.015,4.7763
217.02,12.2635
217.025,20.2992
217.03,27.5771
217.035,35.7549
217.04,46.0964
217.045,56.8075
217.05,67.6151
217.055,80.0932
217.06,93.3891
217.065,106.501
217.07,120.516
217.075,134.525
217.08,145.847
217.085,154.388
217.09,160.89
217.095,164.127
217.1,164.319
217.105,163.113
217.11,159.077
217.115,150.372
217.12,137.808
217.125,121.418
217.13,100.833
217.135,78.481
217.14,56.5329
217.145,34.7517
217.15,14.8151
217.155,-0.402657
217.16,-12.167
217.165,-22.9083
217.17,-32.0266
217.175,-39.6961
217.18,-47.3508
217.185,-53.4083
217.19,-56.3932
217.195,-58.2174
217.2,-59.0552
217.205,-57.7055
217.21,-56.3021
217.215,-56.226
217.22,-55.4127
217.225,-53.8164
217.23,-53.1074
217.235,-52.4168
217.24,-50.796
217.245,-49.66
217.25,-48.7051
217.255,-46.4356
217.26,-44.0087
217.265,-42.5441
217.27,-40.4557
217.275,-38.0792
217.28,-37.2196
217.285,-36.5098
217.29,-34.7323
217.295,-34.0986
217.3,-35.1378
217.305,-35.9594
217.31,-36.9177
217.315,-38.7398
217.32,-39.8079
217.325,-39.6362
217.33,-38.6105
217.335,-35.3287
217.34,-29.8449
217.345,-24.7318
217.35,-20.6099
217.355,-15.5173
217.36,-10.1393
217.365,-5.82133
217.37,-0.621591
217.375,6.24821
217.38,13.3506
217.385,19.9401
217.39,24.4306
217.395,23.3788
217.4,15.6347
217.405,3.37528
217.41,-11.6675
217.415,-27.0553
217.42,-38.5786
217.425,-45.2277
217.43,-49.0354
217.435,-50.7221
217.44,-51.0257
217.445,-52.2955
217.45,-54.7125
217.455,-56.639
217.46,-58.0675
217.465,-56.6731
217.47,-47.3345
217.475,-23.406
217.48,24.7288
217.485,101.96
217.49,195.307
217.495,273.678
217.5,306.441
217.505,279.238
217.51,204.774
217.515,113.569
217.52,35.1029
217.525,-17.7838
217.53,-47.132
217.535,-58.6397
217.54,-58.8569
217.545,-55.5403
217.55,-52.169
217.555,-48.5946
217.56,-45.9511
217.565,-44.5526
217.57,-42.1628
217.575,-38.2686
217.58,-33.5734
217.585,-26.8287
217.59,-18.1164
217.595,-10.3348
217.6,-3.70763
217.605,3.47732
217.61,10.5504
217.615,16.8536
217.62,23.7422
217.625,30.9242
217.63,37.319
217.635,44.4171
217.64,53.3332
217.645,62.7946
217.65,73.3663
217.655,86.7395
217.66,101.455
217.665,115.953
217.67,130.45
217.675,143.636
217.68,153.701
217.685,161.375
217.69,167.072
217.695,168.909
217.7,166.851
217.705,162.124
217.71,153.157
217.715,138.994
217.72,121.917
217.725,102.574
217.73,80.4851
217.735,58.0755
217.74,37.4197
217.745,17.5469
217.75,-0.978017
217.755,-16.3216
217.76,-29.4583
217.765,-40.9491
217.77,-48.8345
217.775,-53.8123
217.78,-58.1859
217.785,-61.1376
217.79,-61.7888
217.795,-62.0721
217.8,-62.1539
217.805,-60.759
217.81,-59.3444
217.815,-58.9493
217.82,-58.0631
217.825,-56.6466
217.83,-55.7421
217.835,-54.2103
217.84,-51.8526
217.845,-50.9053
217.85,-51.3881
217.855,-51.2197
217.86,-51.0006
217.865,-51.3
217.87,-50.5613
217.875,-49.3711
217.88,-49.2498
217.885,-48.8545
217.89,-47.5546
217.895,-47.4255
217.9,-48.5649
217.905,-49.2718
217.91,-49.9704
217.915,-50.941
217.92,-50.328
217.925,-48.2389
217.93,-45.8888
217.935,-42.4442
217.94,-37.8424
217.945,-33.7866
217.95,-29.7727
217.955,-23.7796
217.96,-17.6027
217.965,-13.0577
217.97,-8.08332
217.975,-1.77888
217.98,4.41773
217.985,10.0141
217.99,13.6355
217.995,11.714
218,3.02807
218.005,-9.91309
218.01,-25.0475
218.015,-39.8113
218.02,-50.4149
218.025,-56.6232
218.03,-60.6044
218.035,-62.6735
218.04,-63.393
218.045,-64.8419
218.05,-66.935
218.055,-68.5157
218.06,-69.9755
218.065,-68.5927
218.07,-58.6179
218.075,-32.7702
218.08,19.3346
218.085,102.487
218.09,201.451
218.095,282.098
218.1,312.956
218.105,281.77
218.11,203.737
218.115,110.561
218.12,31.2041
218.125,-22.0376
218.13,-50.7761
218.135,-61.22
218.14,-61.2989
218.145,-58.3419
218.15,-54.5989
218.155,-49.9531
218.16,-46.167
218.165,-43.6308
218.17,-40.2421
218.175,-35.8487
218.18,-31.5881
218.185,-26.6513
218.19,-21.0525
218.195,-16.4989
218.2,-12.0403
218.205,-5.729
218.21,1.48141
218.215,9.03749
218.22,18.1935
218.225,27.9682
218.23,36.9631
218.235,46.7032
218.24,57.9173
218.245,69.0673
218.25,80.6549
218.255,94.1171
218.26,108.013
218.265,121.365
218.27,135.256
218.275,148.726
218.28,159.731
218.285,168.918
218.29,176.511
218.295,180.272
218.3,179.716
218.305,175.448
218.31,165.832
218.315,150.49
218.32,131.732
218.325,110.299
218.33,86.5385
218.335,63.4184
218.34,42.3755
218.345,22.1484
218.35,3.80828
218.355,-10.8592
218.36,-22.7994
218.365,-32.547
218.37,-39.1843
218.375,-44.1283
218.38,-49.125
218.385,-52.5592
218.39,-53.9051
218.395,-55.4301
218.4,-56.9359
218.405,-56.8546
218.41,-56.1739
218.415,-55.5109
218.42,-53.8647
218.425,-52.2532
218.43,-52.0041
218.435,-51.5063
218.44,-50.0205
218.445,-49.201
218.45,-48.4708
218.455,-46.3772
218.46,-44.4701
218.465,-43.5593
218.47,-41.9835
218.475,-40.2349
218.48,-39.7136
218.485,-39.14
218.49,-38.178
218.495,-38.7794
218.5,-40.5254
218.505,-41.716
218.51,-43.1796
218.515,-44.9072
218.52,-44.9225
218.525,-43.3987
218.53,-41.3149
218.535,-37.6194
218.54,-32.3253
218.545,-27.961
218.55,-24.265
218.555,-19.1003
218.56,-13.6036
218.565,-8.65212
218.57,-2.32842
218.575,5.31525
218.58,12.2913
218.585,18.0488
218.59,21.0622
218.595,17.6963
218.6,7.75042
218.605,-5.23511
218.61,-19.3443
218.615,-32.3534
218.62,-40.9382
218.625,-45.6125
218.63,-48.9215
218.635,-50.8573
218.64,-51.8629
218.645,-54.0413
218.65,-57.0673
218.655,-59.6139
218.66,-61.1112
218.665,-58.1322
218.67,-45.0578
218.675,-15.2388
218.68,39.2443
218.685,120.205
218.69,210.662
218.695,278.391
218.7,295.701
218.705,255.241
218.71,175.176
218.715,85.6901
218.72,12.516
218.725,-34.4945
218.73,-58.7538
218.735,-66.5941
218.74,-64.8722
218.745,-60.8578
218.75,-57.7365
218.755,-54.885
218.76,-52.9947
218.765,-52.3186
218.77,-50.4246
218.775,-46.8201
218.78,-43.1553
218.785,-38.5876
218.79,-32.4343
218.795,-26.3971
218.8,-20.2056
218.805,-12.474
218.81,-4.74989
218.815,1.73796
218.82,8.86061
218.825,17.0473
218.83,25.2436
218.835,34.932
218.84,46.9187
218.845,59.1002
218.85,70.9483
218.855,83.8228
218.86,97.0766
218.865,110.023
218.87,123.556
218.875,136.436
218.88,146.211
218.885,153.493
218.89,159.105
218.895,161.411
218.9,160.133
218.905,156.162
218.91,147.961
218.915,134.346
218.92,117.182
218.925,97.4514
218.93,74.9602
218.935,52.1175
218.94,31.0706
218.945,10.9664
218.95,-7.6337
218.955,-22.44
218.96,-33.6613
218.965,-42.4326
218.97,-48.2895
218.975,-52.3563
218.98,-56.6622
218.985,-59.9596
218.99,-60.9642
218.995,-61.0164
219,-60.214
219.005,-57.6722
219.01,-55.0705
219.015,-53.6974
219.02,-52.146
219.025,-50.3922
219.03,-49.7423
219.035,-49.0963
219.04,-47.6465
219.045,-47.1426
219.05,-47.3577
219.055,-46.524
219.06,-45.612
219.065,-45.2868
219.07,-44.0764
219.075,-42.2124
219.08,-41.181
219.085,-40.2819
219.09,-39.1442
219.095,-39.7852
219.1,-41.7904
219.105,-42.5187
219.11,-42.6087
219.115,-43.588
219.12,-43.901
219.125,-42.6768
219.13,-41.1742
219.135,-38.6281
219.14,-34.2777
219.145,-29.9346
219.15,-25.3769
219.155,-19.3681
219.16,-13.6579
219.165,-8.74896
219.17,-1.927
219.175,6.4047
219.18,12.8958
219.185,16.3714
219.19,15.7277
219.195,7.94094
219.2,-5.43648
219.205,-19.2428
219.21,-31.5831
219.215,-41.8299
219.22,-47.8929
219.225,-50.7197
219.23,-53.306
219.235,-55.4863
219.24,-56.5924
219.245,-58.5933
219.25,-61.7419
219.255,-62.987
219.26,-59.6347
219.265,-48.9005
219.27,-22.413
219.275,30.601
219.28,111.259
219.285,203.975
219.29,278.664
219.295,304.163
219.3,269.195
219.305,192.422
219.31,103.616
219.315,27.3896
219.32,-23.204
219.325,-49.031
219.33,-58.7691
219.335,-59.1531
219.34,-54.8224
219.345,-50.3994
219.35,-46.7009
219.355,-42.1718
219.36,-37.9377
219.365,-34.8117
219.37,-30.6743
219.375,-25.2486
219.38,-19.9834
219.385,-13.8801
219.39,-6.53552
219.395,-0.101525
219.4,5.41417
219.405,11.7487
219.41,18.2576
219.415,24.4982
219.42,32.3548
219.425,41.5119
219.43,50.1829
219.435,59.8422
219.44,71.7316
219.445,84.2777
219.45,97.3016
219.455,111.487
219.46,124.76
219.465,135.645
219.47,145.466
219.475,153.823
219.48,159.269
219.485,162.885
219.49,165.159
219.495,164.273
219.5,159.78
219.505,152.279
219.51,140.279
219.515,123.445
219.52,104.252
219.525,83.7231
219.53,61.763
219.535,40.5831
219.54,21.8416
219.545,4.61815
219.55,-10.2946
219.555,-20.8759
219.56,-28.4677
219.565,-34.5805
219.57,-38.4885
219.575,-41.167
219.58,-44.592
219.585,-47.5799
219.59,-49.0741
219.595,-50.6122
219.6,-51.7405
219.605,-50.8268
219.61,-49.094
219.615,-47.9476
219.62,-46.2582
219.625,-44.091
219.63,-42.533
219.635,-40.4585
219.64,-37.8186
219.645,-36.6013
219.65,-36.4597
219.655,-35.6404
219.66,-35.0812
219.665,-35.4193
219.67,-34.8674
219.675,-33.8463
219.68,-33.9599
219.685,-34.081
219.69,-33.3663
219.695,-33.3292
219.7,-33.6247
219.705,-32.701
219.71,-31.6477
219.715,-31.1652
219.72,-29.6302
219.725,-27.2721
219.73,-25.3167
219.735,-22.105
219.74,-17.0165
219.745,-12.3557
219.75,-8.61264
219.755,-4.49505
219.76,-0.109199
219.765,5.12906
219.77,12.926
219.775,21.1932
219.78,25.7401
219.785,25.4995
219.79,19.6789
219.795,7.85549
219.8,-6.08051
219.805,-17.2636
219.81,-25.2698
219.815,-31.0592
219.82,-34.2831
219.825,-36.6191
219.83,-40.2427
219.835,-43.6039
219.84,-45.3971
219.845,-47.3904
219.85,-48.4694
219.855,-44.4244
219.86,-33.1964
219.865,-8.8161
219.87,40.7217
219.875,117.273
219.88,203.067
219.885,270.131
219.89,291.845
219.895,256.16
219.9,180.614
219.905,96.538
219.91,26.3183
219.915,-20.5133
219.92,-43.8008
219.925,-51.2006
219.93,-51.5092
219.935,-48.5867
219.94,-44.4675
219.945,-41.7569
219.95,-40.1023
219.955,-37.7021
219.96,-35.3559
219.965,-33.2598
219.97,-29.3993
219.975,-24.0376
219.98,-18.8343
219.985,-12.9712
219.99,-5.79531
219.995,0.906943
220,7.14924
220.005,14.5922
220.01,22.3487
220.015,29.946
220.02,39.0919
220.025,49.6247
220.03,60.0531
220.035,71.0379
220.04,82.9717
220.045,94.4432
220.05,105.778
220.055,117.956
220.06,129.238
220.065,138.924
220.07,148.44
220.075,156.596
220.08,161.165
220.085,162.942
220.09,162.359
220.095,157.574
220.1,148.543
220.105,136.437
220.11,120.572
220.115,101.096
220.12,80.6136
220.125,60.0968
220.13,39.2148
220.135,19.7538
220.14,3.05025
220.145,-11.9051
220.15,-24.5891
220.155,-33.541
220.16,-40.2846
220.165,-46.3441
220.17,-50.9208
220.175,-54.4168
220.18,-57.939
220.185,-60.0986
220.19,-60.4081
220.195,-60.6324
220.2,-60.4346
220.205,-58.6793
220.21,-56.9865
220.215,-56.21
220.22,-54.7602
220.225,-52.8139
220.23,-51.6057
220.235,-49.7291
220.24,-46.5285
220.245,-44.2971
220.25,-42.9664
220.255,-41.302
220.26,-40.5113
220.265,-40.9506
220.27,-40.9033
220.275,-40.7776
220.28,-41.7971
220.285,-42.5296
220.29,-42.413
220.295,-43.1047
220.3,-44.1368
220.305,-44.1043
220.31,-43.9938
220.315,-43.6262
220.32,-41.1077
220.325,-37.7245
220.33,-35.3593
220.335,-32.8636
220.34,-29.1218
220.345,-25.3561
220.35,-21.625
220.355,-16.7773
220.36,-11.4898
220.365,-5.89331
220.37,0.422151
220.375,5.10012
220.38,4.98911
220.385,-0.448253
220.39,-10.5215
220.395,-24.2783
220.4,-38.0931
220.405,-48.5764
220.41,-56.5336
220.415,-62.8043
220.42,-66.279
220.425,-68.0456
220.43,-69.7827
220.435,-70.9419
220.44,-71.919
220.445,-73.6966
220.45,-72.6069
220.455,-63.6386
220.46,-42.3293
220.465,1.25818
220.47,74.4967
220.475,166.012
220.48,246.993
220.485,288.498
220.49,272.236
220.495,205.266
220.5,117.19
220.505,37.6774
220.51,-19.4285
220.515,-52.3913
220.52,-64.8336
220.525,-64.8776
220.53,-60.8565
220.535,-55.9286
220.54,-51.3205
220.545,-48.7995
220.55,-47.0355
220.555,-43.8712
220.56,-40.3733
220.565,-37.1156
220.57,-32.5291
220.575,-26.9456
220.58,-21.4923
220.585,-14.8975
220.59,-7.11867
220.595,-0.319605
220.6,5.8471
220.605,12.9912
220.61,20.1184
220.615,27.0135
220.62,35.4116
220.625,44.8816
220.63,54.3863
220.635,65.2023
220.64,77.4543
220.645,89.4267
220.65,101.714
220.655,115.362
220.66,128.47
220.665,139.576
220.67,149.239
220.675,156.081
220.68,158.419
220.685,157.582
220.69,154.251
220.695,146.708
220.7,135.117
220.705,120.51
220.71,102.079
220.715,80.7587
220.72,59.6043
220.725,39.1686
220.73,19.1352
220.735,1.62292
220.74,-12.4527
220.745,-24.5866
220.75,-34.3605
220.755,-41.1287
220.76,-46.7334
220.765,-51.7879
220.77,-54.6917
220.775,-56.3259
220.78,-58.0214
220.785,-58.1386
220.79,-56.3759
220.795,-55.078
220.8,-54.1573
220.805,-51.9952
220.81,-49.9601
220.815,-49.3888
220.82,-48.7592
220.825,-47.6431
220.83,-47.1765
220.835,-46.3512
220.84,-44.5466
220.845,-43.3341
220.85,-42.5968
220.855,-41.0791
220.86,-40.1874
220.865,-40.6476
220.87,-40.362
220.875,-39.1083
220.88,-38.4605
220.885,-37.9067
220.89,-37.0314
220.895,-37.3125
220.9,-38.2247
220.905,-37.9254
220.91,-36.9245
220.915,-35.3596
220.92,-31.771
220.925,-26.761
220.93,-22.5722
220.935,-18.6253
220.94,-13.939
220.945,-10.3641
220.95,-7.84278
220.955,-3.76506
220.96,2.31583
220.965,9.26125
220.97,16.0725
220.975,19.7031
220.98,16.225
220.985,6.02434
220.99,-7.54593
220.995,-22.2203
221,-34.8007
221.005,-42.882
221.01,-48.1999
221.015,-52.6602
221.02,-55.3976
221.025,-56.958
221.03,-58.9865
221.035,-60.6283
221.04,-61.2836
221.045,-60.8414
221.05,-55.5807
221.055,-39.8317
221.06,-5.71616
221.065,55.4873
221.07,142.597
221.075,233.53
221.08,295.138
221.085,302.202
221.09,252.202
221.095,167.023
221.1,78.0875
221.105,8.71957
221.11,-34.8363
221.115,-56.728
221.12,-62.7999
221.125,-60.2753
221.13,-55.6864
221.135,-50.7143
221.14,-45.4229
221.145,-41.4091
221.15,-38.3825
221.155,-34.2239
221.16,-29.5287
221.165,-25.2826
221.17,-20.2683
221.175,-14.6046
221.18,-9.63189
221.185,-4.23957
221.19,2.57592
221.195,9.27956
221.2,16.063
221.205,24.2425
221.21,32.5109
221.215,40.3871
221.22,49.9598
221.225,61.1508
221.23,72.642
221.235,85.5495
221.24,100.143
221.245,114.057
221.25,126.91
221.255,139.68
221.26,150.759
221.265,158.939
221.27,165.557
221.275,170.52
221.28,172.24
221.285,171.26
221.29,167.493
221.295,158.558
221.3,144.386
221.305,126.865
221.31,105.988
221.315,82.5951
221.32,60.1399
221.325,39.6909
221.33,20.6643
221.335,4.93537
221.34,-6.70362
221.345,-16.2973
221.35,-24.013
221.355,-28.7025
221.36,-31.9828
221.365,-35.2792
221.37,-37.2694
221.375,-38.4108
221.38,-40.3011
221.385,-41.3978
221.39,-40.5183
221.395,-39.3062
221.4,-38.1338
221.405,-36.1139
221.41,-34.5392
221.415,-34.0296
221.42,-33.089
221.425,-32.1466
221.43,-32.5529
221.435,-32.8947
221.44,-32.2486
221.445,-32.1881
221.45,-32.3157
221.455,-30.9233
221.46,-29.1482
221.465,-27.8839
221.47,-25.7688
221.475,-23.5106
221.48,-23.055
221.485,-23.5174
221.49,-23.907
221.495,-25.1044
221.5,-26.1726
221.505,-25.1652
221.51,-22.5869
221.515,-19.2113
221.52,-14.4019
221.525,-9.31329
221.53,-5.71622
221.535,-1.694
221.54,3.65523
221.545,7.70338
221.55,10.9573
221.555,16.1812
221.56,22.4461
221.565,27.5819
221.57,31.2817
221.575,31.5184
221.58,25.4054
221.585,14.7774
221.59,2.83443
221.595,-9.74973
221.6,-20.8786
221.605,-28.2397
221.61,-33.2187
221.615,-37.0423
221.62,-38.7148
221.625,-39.4369
221.63,-41.3551
221.635,-43.5983
221.64,-44.9759
221.645,-44.4293
221.65,-37.9491
221.655,-18.0053
221.66,25.4791
221.665,98.3979
221.67,191.704
221.675,276.386
221.68,319.258
221.685,302.347
221.69,235.472
221.695,146.525
221.7,64.5154
221.705,6.50199
221.71,-26.3577
221.715,-40.4702
221.72,-42.1355
221.725,-38.0099
221.73,-33.4691
221.735,-29.1061
221.74,-24.7158
221.745,-21.9621
221.75,-19.7797
221.755,-15.7027
221.76,-10.4882
221.765,-4.86177
221.77,2.27917
221.775,9.81528
221.78,15.8877
221.785,21.5696
221.79,27.5403
221.795,32.7666
221.8,38.1486
221.805,45.2285
221.81,53.0319
221.815,61.1744
221.82,71.2911
221.825,82.9421
221.83,94.5053
221.835,106.833
221.84,119.976
221.845,131.93
221.85,142.95
221.855,154.289
221.86,164.705
221.865,173.559
221.87,181.848
221.875,187.988
221.88,189.509
221.885,186.99
221.89,180.526
221.895,168.387
221.9,151.606
221.905,132.484
221.91,110.848
221.915,87.5338
221.92,65.663
221.925,45.8419
221.93,27.2614
221.935,11.6397
221.94,-0.411453
221.945,-10.8066
221.95,-19.218
221.955,-24.6369
221.96,-28.8153
221.965,-32.7389
221.97,-35.0418
221.975,-36.2656
221.98,-37.514
221.985,-37.47
221.99,-36.0411
221.995,-35.1158
222,-34.4131
222.005,-32.9246
222.01,-31.9275
222.015,-31.6804
222.02,-30.5297
222.025,-29.1176
222.03,-28.6862
222.035,-27.7992
222.04,-26.0784
222.045,-25.3379
222.05,-25.1179
222.055,-23.6898
222.06,-21.9113
222.065,-20.5204
222.07,-18.6765
222.075,-17.2712
222.08,-17.4181
222.085,-17.5002
222.09,-17.5259
222.095,-19.4642
222.1,-22.1952
222.105,-22.993
222.11,-21.8772
222.115,-19.3932
222.12,-14.7354
222.125,-9.22362
222.13,-4.80423
222.135,0.132929
222.14,5.91449
222.145,10.2596
222.15,13.9194
222.155,19.226
222.16,25.0214
222.165,29.2712
222.17,31.5661
222.175,29.6692
222.18,21.4408
222.185,9.38816
222.19,-3.3877
222.195,-15.7183
222.2,-25.1801
222.205,-30.5156
222.21,-34.1492
222.215,-37.4825
222.22,-39.6548
222.225,-41.8418
222.23,-45.5442
222.235,-49.5838
222.24,-52.2786
222.245,-51.5861
222.25,-43.087
222.255,-18.05
222.26,33.517
222.265,114.197
222.27,208.425
222.275,283.355
222.28,307.702
222.285,271.646
222.29,193.375
222.295,102.973
222.3,26.6112
222.305,-23.5088
222.31,-49.977
222.315,-60.1486
222.32,-59.9172
222.325,-55.3957
222.33,-51.0754
222.335,-47.256
222.34,-44.0203
222.345,-42.5676
222.35,-41.1616
222.355,-37.8394
222.36,-33.6779
222.365,-28.9536
222.37,-22.5332
222.375,-15.4619
222.38,-9.12204
222.385,-2.11989
222.39,6.09612
222.395,13.9138
222.4,21.5481
222.405,30.0256
222.41,38.0988
222.415,45.7837
222.42,55.2522
222.425,66.1418
222.43,77.4983
222.435,90.7262
222.44,105.434
222.445,118.757
222.45,130.365
222.455,140.887
222.46,148.569
222.465,152.917
222.47,156.117
222.475,158.076
222.48,157.192
222.485,153.859
222.49,147.466
222.495,135.779
222.5,119.615
222.505,101.002
222.51,79.6154
222.515,56.2353
222.52,33.7442
222.525,13.2428
222.53,-5.16275
222.535,-19.2378
222.54,-28.3316
222.545,-34.8026
222.55,-39.3864
222.555,-42.1306
222.56,-45.0773
222.565,-48.7191
222.57,-51.643
222.575,-54.1587
222.58,-56.2559
222.585,-56.6125
222.59,-55.9477
222.595,-56.1693
222.6,-56.3842
222.605,-55.3021
222.61,-54.4369
222.615,-53.9448
222.62,-52.1121
222.625,-49.936
222.63,-48.9514
222.635,-47.4537
222.64,-44.7455
222.645,-42.331
222.65,-39.849
222.655,-37.2368
222.66,-36.2925
222.665,-36.8496
222.67,-36.9205
222.675,-37.24
222.68,-38.8341
222.685,-40.1268
222.69,-41.0406
222.695,-42.7157
222.7,-43.567
222.705,-42.0976
222.71,-40.0541
222.715,-38.4186
222.72,-35.8323
222.725,-32.6879
222.73,-29.66
222.735,-25.2209
222.74,-20.0322
222.745,-16.2939
222.75,-12.09
222.755,-5.31355
222.76,1.421
222.765,5.8963
222.77,7.92547
222.775,5.45061
222.78,-3.13908
222.785,-15.0395
222.79,-27.2874
222.795,-39.2569
222.8,-48.8445
222.805,-54.0592
222.81,-57.0087
222.815,-59.762
222.82,-61.6711
222.825,-63.2043
222.83,-65.6469
222.835,-67.9844
222.84,-68.9464
222.845,-66.6757
222.85,-57.17
222.855,-32.854
222.86,15.8514
222.865,92.4309
222.87,183.845
222.875,259.64
222.88,288.395
222.885,258.035
222.89,185.275
222.895,99.3076
222.9,25.3784
222.905,-23.9557
222.91,-50.307
222.915,-61.3688
222.92,-62.7593
222.925,-59.8315
222.93,-57.3659
222.935,-55.829
222.94,-54.5759
222.945,-54.2703
222.95,-53.7598
222.955,-51.2544
222.96,-47.8818
222.965,-44.4797
222.97,-39.1366
222.975,-31.8866
222.98,-24.5883
222.985,-16.7715
222.99,-8.54389
222.995,-1.74204
223,4.28453
223.005,11.36
223.01,19.3526
223.015,28.4109
223.02,39.8577
223.025,52.5794
223.03,64.9248
223.035,77.4653
223.04,90.9182
223.045,103.929
223.05,116.411
223.055,129.233
223.06,140.255
223.065,147.681
223.07,152.679
223.075,154.52
223.08,151.421
223.085,144.828
223.09,135.408
223.095,121.593
223.1,103.972
223.105,84.7997
223.11,64.8041
223.115,44.7219
223.12,26.421
223.125,9.49436
223.13,-6.92603
223.135,-20.6939
223.14,-30.5177
223.145,-38.1387
223.15,-43.6674
223.155,-46.094
223.16,-47.1935
223.165,-48.3239
223.17,-48.5024
223.175,-48.0721
223.18,-48.1333
223.185,-46.9835
223.19,-44.09
223.195,-41.309
223.2,-38.3949
223.205,-34.6342
223.21,-32.1031
223.215,-31.6812
223.22,-31.1382
223.225,-30.2029
223.23,-30.2913
223.235,-30.0492
223.24,-28.6889
223.245,-28.225
223.25,-28.3822
223.255,-27.4257
223.26,-26.7225
223.265,-26.7292
223.27,-25.6527
223.275,-24.2391
223.28,-23.9365
223.285,-23.6016
223.29,-22.9963
223.295,-23.5931
223.3,-23.9134
223.305,-21.7933
223.31,-18.9291
223.315,-16.3161
223.32,-13.0793
223.325,-10.0827
223.33,-8.63483
223.335,-7.22845
223.34,-4.31182
223.345,-0.188133
223.35,6.1462
223.355,14.8029
223.36,21.5588
223.365,23.1221
223.37,19.6411
223.375,11.1566
223.38,-1.08811
223.385,-12.7383
223.39,-21.56
223.395,-28.2903
223.4,-31.7753
223.405,-31.7623
223.41,-31.2058
223.415,-31.6727
223.42,-32.0895
223.425,-33.3158
223.43,-35.808
223.435,-35.4447
223.44,-28.0613
223.445,-9.61943
223.45,30.3668
223.455,97.8108
223.46,179.892
223.465,249.892
223.47,281.783
223.475,260.272
223.48,195.11
223.485,114.73
223.49,44.4064
223.495,-4.61911
223.5,-31.0058
223.505,-39.6844
223.51,-39.5377
223.515,-36.4765
223.52,-31.7788
223.525,-27.2359
223.53,-24.4188
223.535,-22.0553
223.54,-18.892
223.545,-15.7085
223.55,-12.0904
223.555,-6.79057
223.56,-1.04915
223.565,4.62523
223.57,11.7645
223.575,19.4695
223.58,25.4881
223.585,30.9886
223.59,37.2428
223.595,43.2273
223.6,49.6955
223.605,57.7462
223.61,65.9012
223.615,74.3643
223.62,84.7342
223.625,95.8553
223.63,106.29
223.635,117.102
223.64,128.357
223.645,137.868
223.65,145.689
223.655,152.894
223.66,158.113
223.665,160.854
223.67,162.127
223.675,160.082
223.68,152.324
223.685,139.801
223.69,123.821
223.695,104.278
223.7,83.2092
223.705,63.1154
223.71,43.5563
223.715,25.0107
223.72,9.29778
223.725,-4.18977
223.73,-16.3108
223.735,-25.6033
223.74,-32.0033
223.745,-37.5842
223.75,-41.9405
223.755,-44.0097
223.76,-45.4885
223.765,-47.1545
223.77,-47.5612
223.775,-47.2676
223.78,-47.3031
223.785,-46.4672
223.79,-45.0732
223.795,-44.7176
223.8,-43.9884
223.805,-41.2083
223.81,-38.0552
223.815,-35.5544
223.82,-32.5392
223.825,-29.4681
223.83,-27.321
223.835,-24.8231
223.84,-21.6826
223.845,-19.613
223.85,-18.3203
223.855,-16.6993
223.86,-15.9644
223.865,-16.4222
223.87,-16.7573
223.875,-17.8301
223.88,-20.2292
223.885,-20.9699
223.89,-19.735
223.895,-19.034
223.9,-17.4265
223.905,-13.4096
223.91,-9.03235
223.915,-5.5251
223.92,-2.07669
223.925,1.04717
223.93,4.43272
223.935,10.4422
223.94,17.7462
223.945,21.9071
223.95,20.8303
223.955,14.2283
223.96,1.75052
223.965,-13.2701
223.97,-25.7589
223.975,-34.828
223.98,-41.3358
223.985,-44.5205
223.99,-45.2292
223.995,-45.9246
224,-46.4078
224.005,-45.9598
224.01,-46.5136
224.015,-47.6915
224.02,-44.6922
224.025,-34.9604
224.03,-14.5251
224.035,27.0043
224.04,93.1515
224.045,171.198
224.05,237.42
224.055,266.8
224.06,243.71
224.065,178.657
224.07,99.5673
224.075,29.758
224.08,-19.4619
224.085,-45.5234
224.09,-53.8482
224.095,-53.5839
224.1,-49.9548
224.105,-45.096
224.11,-41.5063
224.115,-39.3593
224.12,-36.4242
224.125,-33.2269
224.13,-30.662
224.135,-26.561
224.14,-20.8859
224.145,-15.7805
224.15,-10.6086
224.155,-4.21239
224.16,1.87774
224.165,7.26792
224.17,13.6393
224.175,20.2734
224.18,26.079
224.185,33.218
224.19,42.0677
224.195,50.6481
224.2,59.6827
224.205,70.3191
224.21,81.0348
224.215,91.4449
224.22,102.98
224.225,114.635
224.23,124.966
224.235,135.068
224.24,144.443
224.245,150.241
224.25,152.428
224.255,151.803
224.26,146.992
224.265,137.83
224.27,125.704
224.275,110.05
224.28,90.3705
224.285,69.347
224.29,48.8507
224.295,28.9182
224.3,11.1946
224.305,-3.15598
224.31,-15.8812
224.315,-27.0621
224.32,-34.9711
224.325,-40.5263
224.33,-45.4007
224.335,-48.9134
224.34,-51.097
224.345,-53.6059
224.35,-55.9254
224.355,-57.1642
224.36,-58.6097
224.365,-59.9876
224.37,-59.6479
224.375,-58.8825
224.38,-59.0705
224.385,-58.5557
224.39,-57.3546
224.395,-57.3196
224.4,-57.7372
224.405,-57.3093
224.41,-57.0999
224.415,-56.8158
224.42,-54.851
224.425,-52.3338
224.43,-50.8207
224.435,-49.2099
224.44,-47.4611
224.445,-46.9622
224.45,-46.342
224.455,-44.3506
224.46,-42.2924
224.465,-40.147
224.47,-37.1166
224.475,-34.0775
224.48,-31.4699
224.485,-27.7259
224.49,-23.1032
224.495,-20.1572
224.5,-18.3048
224.505,-15.608
224.51,-12.6783
224.515,-8.76774
224.52,-2.03686
224.525,6.0325
224.53,12.614
224.535,16.7432
224.54,16.9224
224.545,10.8112
224.55,0.169714
224.555,-11.6901
224.56,-23.9525
224.565,-34.7706
224.57,-41.4955
224.575,-45.0859
224.58,-47.3393
224.585,-47.776
224.59,-47.5095
224.595,-48.7414
224.6,-50.5986
224.605,-51.1842
224.61,-49.0905
224.615,-41.0219
224.62,-18.5504
224.625,27.4608
224.63,98.2911
224.635,182.295
224.64,253.081
224.645,281.2
224.65,253.416
224.655,183.869
224.66,100.023
224.665,27.0673
224.67,-21.8106
224.675,-47.6983
224.68,-57.8627
224.685,-58.049
224.69,-53.9152
224.695,-50.0085
224.7,-46.9552
224.705,-44.4641
224.71,-43.3891
224.715,-42.486
224.72,-39.4676
224.725,-35.1948
224.73,-30.5325
224.735,-23.9126
224.74,-16.0701
224.745,-9.5976
224.75,-4.01705
224.755,1.73585
224.76,6.8783
224.765,12.0238
224.77,18.8479
224.775,26.3003
224.78,32.882
224.785,40.23
224.79,49.2086
224.795,58.286
224.8,67.7429
224.805,78.7456
224.81,90.3626
224.815,102.045
224.82,114.127
224.825,124.978
224.83,132.627
224.835,137.758
224.84,140.562
224.845,139.329
224.85,134.119
224.855,125.915
224.86,113.793
224.865,97.9444
224.87,80.628
224.875,61.9632
224.88,41.7225
224.885,22.5113
224.89,5.6591
224.895,-9.82389
224.9,-23.4893
224.905,-34.2131
224.91,-42.8047
224.915,-49.4688
224.92,-53.2996
224.925,-55.7658
224.93,-58.5497
224.935,-60.4278
224.94,-61.0595
224.945,-62.3604
224.95,-64.0751
224.955,-64.7405
224.96,-65.3989
224.965,-66.3569
224.97,-66.0238
224.975,-65.0292
224.98,-64.8286
224.985,-63.8588
224.99,-61.4102
224.995,-59.3501
225,-57.6642
225.005,-55.1153
225.01,-52.5855
225.015,-51.0825
225.02,-50.0379
225.025,-49.7032
225.03,-50.1781
225.035,-49.8741
225.04,-48.8976
225.045,-48.5959
225.05,-48.0308
225.055,-46.4504
225.06,-45.7765
225.065,-46.0631
225.07,-45.1292
225.075,-43.9325
225.08,-43.5569
225.085,-42.3182
225.09,-40.0874
225.095,-38.6029
225.1,-36.9076
225.105,-33.7595
225.11,-30.8308
225.115,-28.5161
225.12,-24.8481
225.125,-19.8277
225.13,-13.973
225.135,-6.04775
225.14,1.86049
225.145,4.95096
225.15,2.13148
225.155,-5.49152
225.16,-17.7324
225.165,-32.1961
225.17,-44.2615
225.175,-52.8545
225.18,-58.9661
225.185,-62.1117
225.19,-63.1591
225.195,-64.3107
225.2,-65.0606
225.205,-65.1444
225.21,-67.0173
225.215,-69.7194
225.22,-67.7589
225.225,-57.113
225.23,-30.7943
225.235,21.8292
225.24,100.276
225.245,184.696
225.25,246.352
225.255,259.753
225.26,217.08
225.265,138.47
225.27,55.5293
225.275,-10.2815
225.28,-51.8308
225.285,-70.2875
225.29,-72.8131
225.295,-68.9958
225.3,-64.0222
225.305,-59.1847
225.31,-55.7348
225.315,-53.7222
225.32,-51.5761
225.325,-49.2883
225.33,-47.3411
225.335,-43.882
225.34,-38.4717
225.345,-32.8714
225.35,-26.8992
225.355,-19.8585
225.36,-13.5383
225.365,-8.47231
225.37,-2.60653
225.375,4.05502
225.38,10.7323
225.385,18.6702
225.39,27.9995
225.395,37.2595
225.4,46.7288
225.405,57.101
225.41,66.8815
225.415,76.2022
225.42,86.99
225.425,98.0877
225.43,107.743
225.435,116.614
225.44,124.213
225.445,128.594
225.45,130.505
225.455,130.882
225.46,127.269
225.465,118.587
225.47,106.744
225.475,91.8441
225.48,73.6535
225.485,54.9278
225.49,37.3319
225.495,19.9261
225.5,3.84299
225.505,-9.54716
225.51,-21.3871
225.515,-32.1538
225.52,-40.6279
225.525,-47.2986
225.53,-53.1832
225.535,-56.9422
225.54,-58.4752
225.545,-59.5911
225.55,-59.5745
225.555,-57.2254
225.56,-54.7401
225.565,-53.6375
225.57,-52.6705
225.575,-52.0535
225.58,-51.9514
225.585,-50.315
225.59,-48.0288
225.595,-47.8482
225.6,-48.7483
225.605,-48.8816
225.61,-49.142
225.615,-49.3086
225.62,-47.766
225.625,-45.8445
225.63,-45.3811
225.635,-45.1335
225.64,-44.7735
225.645,-45.7831
225.65,-47.0245
225.655,-46.8611
225.66,-46.5812
225.665,-46.5036
225.67,-45.5499
225.675,-45.2618
225.68,-46.618
225.685,-47.4148
225.69,-46.9088
225.695,-46.7582
225.7,-46.3234
225.705,-44.3487
225.71,-42.2484
225.715,-39.8872
225.72,-35.5549
225.725,-30.871
225.73,-27.3161
225.735,-23.2798
225.74,-18.4994
225.745,-13.9074
225.75,-7.5972
225.755,0.754318
225.76,6.96471
225.765,8.46916
225.77,5.20941
225.775,-4.38534
225.78,-19.1065
225.785,-33.5746
225.79,-44.3709
225.795,-51.9406
225.8,-55.8554
225.805,-56.0379
225.81,-55.4254
225.815,-55.6013
225.82,-55.857
225.825,-57.322
225.83,-60.8365
225.835,-63.8039
225.84,-63.0624
225.845,-55.5187
225.85,-31.7935
225.855,20.1026
225.86,100.207
225.865,190.703
225.87,261.714
225.875,282.865
225.88,243.53
225.885,164.902
225.89,78.7014
225.895,7.34706
225.9,-38.6792
225.905,-60.2197
225.91,-66.4518
225.915,-65.8208
225.92,-62.689
225.925,-60.5823
225.93,-60.546
225.935,-60.186
225.94,-58.7476
225.945,-57.2431
225.95,-54.3023
225.955,-48.7243
225.96,-42.3727
225.965,-35.9985
225.97,-28.8616
225.975,-22.4747
225.98,-17.4425
225.985,-11.458
225.99,-4.33252
225.995,2.29678
226,9.54146
226.005,18.6037
226.01,28.0835
226.015,37.9315
226.02,49.209
226.025,60.4248
226.03,70.3834
226.035,80.8801
226.04,92.1526
226.045,102.437
226.05,112.35
226.055,122.471
226.06,130.518
226.065,135.598
226.07,138.837
226.075,139.147
226.08,135.581
226.085,129.324
226.09,119.935
226.095,105.777
226.1,88.1454
226.105,69.1445
226.11,49.0259
226.115,29.2221
226.12,11.8316
226.125,-3.72614
226.13,-18.1433
226.135,-29.849
226.14,-39.1957
226.145,-48.1732
226.15,-55.7552
226.155,-60.6674
226.16,-64.096
226.165,-66.0016
226.17,-65.4754
226.175,-64.2899
226.18,-63.7727
226.185,-62.362
226.19,-60.017
226.195,-58.5509
226.2,-57.2165
226.205,-55.3892
226.21,-54.7794
226.215,-55.128
226.22,-54.3256
226.225,-53.3003
226.23,-52.9454
226.235,-51.6396
226.24,-49.6282
226.245,-48.9275
226.25,-48.6249
226.255,-47.5739
226.26,-47.2113
226.265,-47.5193
226.27,-47.2126
226.275,-47.6205
226.28,-49.7206
226.285,-51.952
226.29,-54.0993
226.295,-56.7956
226.3,-58.2648
226.305,-57.6425
226.31,-57.0252
226.315,-56.9065
226.32,-55.5576
226.325,-53.1363
226.33,-50.4206
226.335,-46.5031
226.34,-42.0125
226.345,-38.1491
226.35,-33.2141
226.355,-26.9222
226.36,-21.4136
226.365,-15.9093
226.37,-8.79898
226.375,-2.55085
226.38,0.208884
226.385,-0.146677
226.39,-4.88305
226.395,-16.0017
226.4,-30.5634
226.405,-44.5882
226.41,-57.017
226.415,-66.5454
226.42,-71.7324
226.425,-74.4329
226.43,-76.6839
226.435,-77.8184
226.44,-78.6371
226.445,-81.1973
226.45,-84.4178
226.455,-84.8427
226.46,-79.5779
226.465,-62.3183
226.47,-21.7046
226.475,47.4596
226.48,134.285
226.485,212.543
226.49,251.372
226.495,231.605
226.5,165.037
226.505,81.9371
226.51,7.3839
226.515,-44.9791
226.52,-72.4697
226.525,-82.128
226.53,-82.3385
226.535,-77.6771
226.54,-72.2473
226.545,-69.0213
226.55,-66.8503
226.555,-64.2693
226.56,-62.2118
226.565,-60.3544
226.57,-56.8463
226.575,-52.2499
226.58,-47.2098
226.585,-40.512
226.59,-32.997
226.595,-26.4921
226.6,-20.3184
226.605,-13.9691
226.61,-8.44833
226.615,-2.66483
226.62,5.26484
226.625,14.3692
226.63,23.3369
226.635,32.5428
226.64,41.0304
226.645,47.8462
226.65,54.9891
226.655,63.9761
226.66,73.3969
226.665,82.7571
226.67,92.46
226.675,100.467
226.68,105.331
226.685,108.255
226.69,108.658
226.695,104.609
226.7,97.208
226.705,87.4619
226.71,74.118
226.715,57.8851
226.72,40.7309
226.725,21.9577
226.73,1.61201
226.735,-17.2514
226.74,-33.8887
226.745,-49.3353
226.75,-62.0745
226.755,-71.3229
226.76,-79.1752
226.765,-85.8854
226.77,-90.2977
226.775,-93.3642
226.78,-95.4584
226.785,-95.1481
226.79,-93.7057
226.795,-93.3062
226.8,-92.645
226.805,-90.7101
226.81,-89.2215
226.815,-88.0548
226.82,-85.9834
226.825,-84.5645
226.83,-84.6386
226.835,-84.3138
226.84,-83.4642
226.845,-83.4876
226.85,-83.0083
226.855,-81.1999
226.86,-79.7537
226.865,-78.6805
226.87,-77.1431
226.875,-76.5148
226.88,-77.5982
226.885,-78.5373
226.89,-79.0421
226.895,-80.7625
226.9,-82.5056
226.905,-82.62
226.91,-82.7609
226.915,-83.4569
226.92,-83.247
226.925,-82.5831
226.93,-82.3406
226.935,-80.7343
226.94,-77.5105
226.945,-74.4819
226.95,-70.8315
226.955,-65.2505
226.96,-59.4214
226.965,-54.7747
226.97,-49.9562
226.975,-44.7139
226.98,-39.6004
226.985,-33.788
226.99,-28.791
226.995,-28.0259
227,-32.3458
227.005,-41.2162
227.01,-54.1874
227.015,-68.3498
227.02,-79.7124
227.025,-87.9199
227.03,-93.874
227.035,-96.6391
227.04,-97.1392
227.045,-97.9733
227.05,-98.5537
227.055,-98.2512
227.06,-98.6625
227.065,-97.792
227.07,-90.2703
227.075,-70.2571
227.08,-28.392
227.085,42.3645
227.09,129.451
227.095,201.599
227.1,229.335
227.105,200.48
227.11,129.369
227.115,46.2529
227.12,-22.5753
227.125,-67.1188
227.13,-89.4771
227.135,-94.93
227.14,-90.9408
227.145,-85.3024
227.15,-80.4248
227.155,-75.9287
227.16,-73.1149
227.165,-71.5961
227.17,-69.3299
227.175,-66.6113
227.18,-64.0539
227.185,-59.6582
227.19,-53.2423
227.195,-46.9902
227.2,-40.8486
227.205,-33.9315
227.21,-27.4556
227.215,-21.2619
227.22,-13.7412
227.225,-5.44487
227.23,2.55162
227.235,11.4322
227.24,21.1866
227.245,30.2399
227.25,39.5846
227.255,50.1653
227.26,60.5003
227.265,70.5614
227.27,81.7686
227.275,92.3648
227.28,100.495
227.285,107.332
227.29,113.117
227.295,116.359
227.3,117.077
227.305,114.983
227.31,108.105
227.315,96.5836
227.32,82.3807
227.325,65.3317
227.33,45.3245
227.335,25.0316
227.34,6.20219
227.345,-11.5933
227.35,-27.5024
227.355,-40.4284
227.36,-51.4424
227.365,-60.6255
227.37,-66.5213
227.375,-70.5303
227.38,-74.853
227.385,-78.1459
227.39,-79.7036
227.395,-80.8913
227.4,-80.8933
227.405,-79.0127
227.41,-77.1605
227.415,-75.6383
227.42,-73
227.425,-70.6357
227.43,-69.8998
227.435,-69.079
227.44,-67.6475
227.445,-67.0405
227.45,-66.3801
227.455,-64.6365
227.46,-63.3238
227.465,-62.5857
227.47,-61.0435
227.475,-59.87
227.48,-60.0723
227.485,-60.0271
227.49,-59.4644
227.495,-59.709
227.5,-59.8581
227.505,-59.0114
227.51,-58.9844
227.515,-60.2443
227.52,-61.0072
227.525,-61.5393
227.53,-62.269
227.535,-60.8923
227.54,-57.2285
227.545,-53.2306
227.55,-48.6399
227.555,-43.0386
227.56,-38.2307
227.565,-34.875
227.57,-31.4248
227.575,-27.2125
227.58,-21.9518
227.585,-14.8137
227.59,-8.3621
227.595,-6.9687
227.6,-11.5098
227.605,-20.6391
227.61,-32.9962
227.615,-45.5261
227.62,-55.4066
227.625,-63.4189
227.63,-70.4176
227.635,-74.7977
227.64,-76.765
227.645,-78.6303
227.65,-80.1434
227.655,-80.5902
227.66,-81.503
227.665,-81.2918
227.67,-76.105
227.675,-63.3582
227.68,-34.7241
227.685,20.6126
227.69,98.9564
227.695,176.036
227.7,222.789
227.705,218.355
227.71,163.594
227.715,83.59
227.72,7.44083
227.725,-48.9113
227.73,-81.9643
227.735,-94.769
227.74,-95.0173
227.745,-90.5495
227.75,-85.0276
227.755,-80.2372
227.76,-78.3952
227.765,-78.7911
227.77,-78.7728
227.775,-78.4142
227.78,-77.5779
227.785,-74.2136
227.79,-68.9375
227.795,-64.2454
227.8,-59.8134
227.805,-54.6927
227.81,-49.9539
227.815,-45.05
227.82,-38.3329
227.825,-31.0737
227.83,-24.3404
227.835,-16.6862
227.84,-7.97573
227.845,0.600301
227.85,10.4787
227.855,22.5771
227.86,34.929
227.865,47.3618
227.87,60.6728
227.875,72.7994
227.88,82.3813
227.885,90.8384
227.89,97.5902
227.895,100.789
227.9,100.989
227.905,98.6536
227.91,92.2764
227.915,81.8801
227.92,68.9153
227.925,52.9043
227.93,34.2566
227.935,15.8363
227.94,-1.52018
227.945,-18.6651
227.95,-34.2977
227.955,-47.1801
227.96,-58.485
227.965,-68.0156
227.97,-74.7464
227.975,-79.9832
227.98,-84.8689
227.985,-88.3965
227.99,-91.1199
227.995,-94.4012
228,-96.7985
228.005,-96.9531
228.01,-96.3114
228.015,-95.11
228.02,-92.1923
228.025,-89.1373
228.03,-87.2474
228.035,-85.3525
228.04,-83.6536
228.045,-83.4303
228.05,-83.2035
228.055,-81.9367
228.06,-81.3243
228.065,-81.2822
228.07,-80.273
228.075,-79.2212
228.08,-78.6693
228.085,-77.0877
228.09,-75.0521
228.095,-74.5117
228.1,-75.0112
228.105,-75.7196
228.11,-77.2433
228.115,-77.6538
228.12,-74.2313
228.125,-68.4596
228.13,-62.9692
228.135,-57.6993
228.14,-53.4582
228.145,-51.2839
228.15,-48.9922
228.155,-45.7315
228.16,-43.5614
228.165,-41.3089
228.17,-36.0972
228.175,-29.551
228.18,-24.5784
228.185,-22.1837
228.19,-24.9017
228.195,-35.0237
228.2,-49.1117
228.205,-62.3994
228.21,-73.4848
228.215,-81.4558
228.22,-85.3211
228.225,-87.1355
228.23,-88.5814
228.235,-88.6609
228.24,-88.345
228.245,-89.9086
228.25,-92.0627
228.255,-91.8865
228.26,-87.4841
228.265,-73.4615
228.27,-37.819
228.275,27.3425
228.28,115.774
228.285,203.808
228.29,258.517
228.295,254.507
228.3,195.621
228.305,109.419
228.31,24.5162
228.315,-39.5733
228.32,-76.5697
228.325,-92.3637
228.33,-95.6451
228.335,-91.9686
228.34,-86.3964
228.345,-82.4641
228.35,-79.6471
228.355,-77.3486
228.36,-76.4476
228.365,-75.1415
228.37,-70.8894
228.375,-64.8417
228.38,-58.3951
228.385,-50.6838
228.39,-42.7992
228.395,-36.4514
228.4,-30.4313
228.405,-23.9037
228.41,-17.8361
228.415,-11.5334
228.42,-3.10436
228.425,6.84576
228.43,17.217
228.435,28.8578
228.44,40.7066
228.445,51.2567
228.45,62.0239
228.455,74.0079
228.46,85.3796
228.465,96.0508
228.47,106.85
228.475,115.995
228.48,122.182
228.485,126.361
228.49,127.787
228.495,124.966
228.5,119.058
228.505,110.202
228.51,96.3352
228.515,78.3933
228.52,59.1803
228.525,38.87
228.53,17.9947
228.535,-1.07924
228.54,-18.2384
228.545,-34.1213
228.55,-47.0329
228.555,-56.4044
228.56,-64.4342
228.565,-71.556
228.57,-76.6816
228.575,-81.1069
228.58,-85.0959
228.585,-86.5313
228.59,-85.9811
228.595,-85.4121
228.6,-84.0604
228.605,-81.6137
228.61,-79.7999
228.615,-78.3691
228.62,-76.1099
228.625,-74.559
228.63,-74.2755
228.635,-73.2952
228.64,-71.7014
228.645,-70.7555
228.65,-69.3004
228.655,-67.0062
228.66,-65.8138
228.665,-65.2972
228.67,-63.9073
228.675,-62.588
228.68,-61.7534
228.685,-59.8821
228.69,-57.8911
228.695,-57.7042
228.7,-57.5563
228.705,-55.7848
228.71,-53.3697
228.715,-50.363
228.72,-45.8094
228.725,-41.638
228.73,-38.6875
228.735,-34.9345
228.74,-30.9274
228.745,-27.5619
228.75,-22.2245
228.755,-13.5702
228.76,-4.47907
228.765,2.45208
228.77,5.67771
228.775,2.12631
228.78,-8.71663
228.785,-22.7301
228.79,-36.7541
228.795,-49.3868
228.8,-58.086
228.805,-62.4873
228.81,-65.265
228.815,-67.0857
228.82,-67.6128
228.825,-68.6819
228.83,-71.3788
228.835,-74.1666
228.84,-75.4415
228.845,-72.3836
228.85,-58.2229
228.855,-21.987
228.86,43.4041
228.865,132.549
228.87,221.949
228.875,278.29
228.88,276.855
228.885,220.742
228.89,135.434
228.895,49.4156
228.9,-16.4133
228.905,-55.8687
228.91,-74.8286
228.915,-80.5744
228.92,-78.806
228.925,-75.4007
228.93,-72.903
228.935,-70.1508
228.94,-67.3731
228.945,-65.4747
228.95,-62.957
228.955,-58.6626
228.96,-53.7372
228.965,-47.9139
228.97,-40.7016
228.975,-34.1577
228.98,-28.8782
228.985,-22.7879
228.99,-15.6753
228.995,-9.25455
229,-2.54508
229.005,5.79291
229.01,14.3393
229.015,22.6498
229.02,32.1105
229.025,42.1339
229.03,52.1531
229.035,63.9944
229.04,77.4145
229.045,89.683
229.05,100.994
229.055,111.812
229.06,120.197
229.065,125.748
229.07,129.746
229.075,131.099
229.08,128.704
229.085,123.519
229.09,114.978
229.095,101.466
229.1,84.5928
229.105,66.118
229.11,45.5381
229.115,24.3944
229.12,5.54674
229.125,-10.9202
229.13,-25.9043
229.135,-38.2019
229.14,-47.673
229.145,-55.8835
229.15,-62.4204
229.155,-66.6672
229.16,-70.3349
229.165,-73.0681
229.17,-73.2784
229.175,-72.5961
229.18,-72.438
229.185,-71.1701
229.19,-68.6752
229.195,-66.9717
229.2,-65.5877
229.205,-63.567
229.21,-62.4021
229.215,-61.8442
229.22,-60.0948
229.225,-58.185
229.23,-57.0268
229.235,-55.058
229.24,-52.5903
229.245,-51.3685
229.25,-50.4842
229.255,-49.1146
229.26,-48.7281
229.265,-49.1704
229.27,-48.7254
229.275,-48.01
229.28,-47.7619
229.285,-46.1284
229.29,-42.7658
229.295,-39.4068
229.3,-35.2151
229.305,-29.9128
229.31,-25.4577
229.315,-21.4015
229.32,-16.2763
229.325,-11.1305
229.33,-6.1153
229.335,0.786255
229.34,8.73214
229.345,14.3371
229.35,16.6552
229.355,14.5923
229.36,5.70049
229.365,-7.64029
229.37,-20.3576
229.375,-31.2597
229.38,-40.1731
229.385,-45.4403
229.39,-47.7204
229.395,-49.2387
229.4,-50.0706
229.405,-50.4287
229.41,-52.8303
229.415,-56.8627
229.42,-57.918
229.425,-53.4619
229.43,-39.4159
229.435,-3.65629
229.44,62.401
229.445,150.195
229.45,234.762
229.455,285.759
229.46,279.72
229.465,221.243
229.47,138.87
229.475,59.8572
229.48,0.282258
229.485,-34.1234
229.49,-48.0554
229.495,-51.0251
229.5,-49.063
229.505,-45.4648
229.51,-42.9016
229.515,-40.4161
229.52,-36.0487
229.525,-31.4149
229.53,-27.9849
229.535,-24.2395
229.54,-20.1212
229.545,-16.7477
229.55,-12.4788
229.555,-6.19901
229.56,0.280651
229.565,6.68278
229.57,14.3613
229.575,22.2809
229.58,29.7774
229.585,38.8298
229.59,49.3814
229.595,59.5438
229.6,69.5997
229.605,80.1157
229.61,89.9782
229.615,100.255
229.62,112.925
229.625,126.255
229.63,138.279
229.635,149.458
229.64,158.836
229.645,164.482
229.65,167.099
229.655,167.243
229.66,163.129
229.665,155.05
229.67,144.853
229.675,131.54
229.68,114.271
229.685,95.3702
229.69,75.9652
229.695,55.7246
229.7,36.6445
229.705,20.0942
229.71,4.6146
229.715,-9.26732
229.72,-19.6978
229.725,-27.8196
229.73,-34.8657
229.735,-39.5742
229.74,-42.6709
229.745,-46.0807
229.75,-48.7899
229.755,-50.0386
229.76,-51.1894
229.765,-51.5231
229.77,-49.4459
229.775,-46.8079
229.78,-45.3623
229.785,-43.7337
229.79,-41.7512
229.795,-40.4093
229.8,-38.3387
229.805,-35.054
229.81,-32.6167
229.815,-31.3099
229.82,-29.9985
229.825,-29.5631
229.83,-29.9775
229.835,-29.4085
229.84,-28.5731
229.845,-29.1645
229.85,-29.7003
229.855,-28.9596
229.86,-28.4258
229.865,-27.6943
229.87,-24.9473
229.875,-21.5729
229.88,-18.5016
229.885,-14.5011
229.89,-10.1577
229.895,-7.30099
229.9,-5.32355
229.905,-2.86118
229.91,0.383208
229.915,5.70044
229.92,13.1763
229.925,18.9236
229.93,19.6296
229.935,15.0945
229.94,4.87521
229.945,-9.65135
229.95,-23.9202
229.955,-35.2667
229.96,-44.1141
229.965,-49.8169
229.97,-51.6614
229.975,-52.2922
229.98,-53.6451
229.985,-54.6807
229.99,-55.8693
229.995,-58.36
230,-58.8365
230.005,-53.231
230.01,-37.6704
230.015,-1.04344
230.02,65.6307
230.025,153.624
230.03,237.509
230.035,288.282
230.04,282.736
230.045,222.368
230.05,135.204
230.055,51.5737
230.06,-11.9695
230.065,-50.326
230.07,-66.2684
230.075,-68.676
230.08,-65.3615
230.085,-59.4376
230.09,-53.4249
230.095,-49.6067
230.1,-46.8335
230.105,-43.6815
230.11,-40.611
230.115,-36.4449
230.12,-29.9354
230.125,-22.9645
230.13,-16.7198
230.135,-10.0074
230.14,-3.15763
230.145,2.65184
230.15,9.04983
230.155,17.1031
230.16,24.9388
230.165,32.5777
230.17,41.4047
230.175,50.5739
230.18,60.1188
230.185,71.7832
230.19,84.4875
230.195,96.1675
230.2,108.055
230.205,120.618
230.21,131.646
230.215,141.027
230.22,149.601
230.225,155.541
230.23,158.34
230.235,159.589
230.24,157.978
230.245,151.193
230.25,140.164
230.255,125.781
230.26,107.373
230.265,86.8449
230.27,66.6488
230.275,46.1775
230.28,25.9542
230.285,8.67869
230.29,-5.7927
230.295,-18.9368
230.3,-29.8616
230.305,-38.2887
230.31,-45.3923
230.315,-50.3055
230.32,-52.1478
230.325,-52.7367
230.33,-53.0004
230.335,-51.6591
230.34,-49.3104
230.345,-47.8887
230.35,-47.3091
230.355,-47.3016
230.36,-48.81
230.365,-50.5147
230.37,-50.3462
230.375,-49.3753
230.38,-48.1106
230.385,-45.3119
230.39,-42.3202
230.395,-41.1243
230.4,-40.6584
230.405,-40.1826
230.41,-40.4837
230.415,-40.5518
230.42,-39.0926
230.425,-37.919
230.43,-37.9647
230.435,-37.4891
230.44,-36.7356
230.445,-36.7079
230.45,-35.2724
230.455,-31.7518
230.46,-28.4414
230.465,-25.1409
230.47,-21.1161
230.475,-18.0468
230.48,-16.1054
230.485,-13.3235
230.49,-9.6411
230.495,-5.2987
230.5,1.25429
230.505,8.41347
230.51,11.8827
230.515,10.321
230.52,3.7299
230.525,-8.65362
230.53,-24.4057
230.535,-38.4133
230.54,-48.9976
230.545,-56.8359
230.55,-61.1593
230.555,-62.8991
230.56,-64.7084
230.565,-66.3565
230.57,-67.1527
230.575,-69.061
230.58,-71.7062
230.585,-70.1169
230.59,-60.6861
230.595,-37.6834
230.6,11.0915
230.605,90.2054
230.61,184.835
230.615,266.037
230.62,303.48
230.625,278.51
230.63,203.465
230.635,111.481
230.64,30.3383
230.645,-27.0033
230.65,-58.4019
230.655,-69.9758
230.66,-71.5102
230.665,-68.7212
230.67,-64.1866
230.675,-60.6874
230.68,-58.2882
230.685,-54.8883
230.69,-50.8027
230.695,-46.7544
230.7,-41.153
230.705,-34.0772
230.71,-27.6997
230.715,-21.5706
230.72,-14.4361
230.725,-7.99395
230.73,-2.56092
230.735,3.93019
230.74,11.0104
230.745,17.7543
230.75,25.8737
230.755,35.744
230.76,45.6367
230.765,56.2627
230.77,68.8431
230.775,81.6434
230.78,94.2365
230.785,107.724
230.79,120.325
230.795,130.453
230.8,139.525
230.805,147.753
230.81,152.878
230.815,154.807
230.82,154.365
230.825,150.051
230.83,141.143
230.835,128.848
230.84,112.636
230.845,92.354
230.85,71.018
230.855,50.4602
230.86,30.2353
230.865,11.4293
230.87,-4.54983
230.875,-18.8739
230.88,-31.8035
230.885,-41.8644
230.89,-49.6847
230.895,-56.2294
230.9,-60.0448
230.905,-61.1215
230.91,-61.5803
230.915,-61.0156
230.92,-58.6774
230.925,-56.6269
230.93,-55.6107
230.935,-53.8473
230.94,-52.1314
230.945,-52.3011
230.95,-52.715
230.955,-51.8124
230.96,-51.2137
230.965,-51.1621
230.97,-50.2527
230.975,-49.4088
230.98,-49.2076
230.985,-48.235
230.99,-47.0256
230.995,-46.9612
231,-46.8258
231.005,-45.7642
231.01,-45.5003
231.015,-45.9913
231.02,-45.9376
231.025,-46.5056
231.03,-48.2246
231.035,-48.9798
231.04,-48.2414
231.045,-46.8981
231.05,-43.7146
231.055,-38.5725
231.06,-34.2023
231.065,-30.4671
231.07,-25.3093
231.075,-19.8988
231.08,-15.035
231.085,-8.51262
231.09,-0.644084
231.095,5.53305
231.1,8.83768
231.105,7.893
231.11,-0.291459
231.115,-14.1405
231.12,-28.7479
231.125,-42.0704
231.13,-52.8282
231.135,-59.1618
231.14,-62.2128
231.145,-64.4518
231.15,-65.6767
231.155,-65.9212
231.16,-67.3484
231.165,-70.099
231.17,-72.3132
231.175,-72.3553
231.18,-66.9001
231.185,-47.137
231.19,-1.93513
231.195,72.1338
231.2,163.316
231.205,243.043
231.21,279.178
231.215,255.098
231.22,184.026
231.225,95.5868
231.23,16.659
231.235,-37.6815
231.24,-66.9531
231.245,-78.9541
231.25,-80.4567
231.255,-76.7935
231.26,-72.8794
231.265,-69.9832
231.27,-67.1517
231.275,-64.8606
231.28,-63.0092
231.285,-59.4052
231.29,-54.067
231.295,-48.4711
231.3,-41.7458
231.305,-33.7054
231.31,-26.5785
231.315,-20.234
231.32,-13.0047
231.325,-5.61921
231.33,1.58442
231.335,10.209
231.34,19.88
231.345,29.1362
231.35,39.1515
231.355,50.6666
231.36,62.1297
231.365,73.9953
231.37,86.9921
231.375,99.2725
231.38,109.996
231.385,120.661
231.39,130.275
231.395,136.714
231.4,141.162
231.405,143.94
231.41,142.869
231.415,137.892
231.42,129.734
231.425,117.038
231.43,99.6362
231.435,80.0506
231.44,59.0452
231.445,36.4348
231.45,14.7567
231.455,-4.25972
231.46,-21.1566
231.465,-35.0339
231.47,-44.9806
231.475,-52.8675
231.48,-59.6244
231.485,-63.8236
231.49,-66.3601
231.495,-69.3948
231.5,-71.4659
231.505,-71.3854
231.51,-70.7625
231.515,-69.7749
231.52,-67.8052
231.525,-65.977
231.53,-64.5851
231.535,-62.0376
231.54,-59.09
231.545,-57.675
231.55,-56.753
231.555,-55.514
231.56,-55.1518
231.565,-54.7339
231.57,-52.4573
231.575,-49.7235
231.58,-47.7326
231.585,-45.6891
231.59,-44.6663
231.595,-45.8655
231.6,-47.3111
231.605,-48.0767
231.61,-49.8344
231.615,-51.7606
231.62,-52.0097
231.625,-51.5612
231.63,-50.4753
231.635,-46.8912
231.64,-42.1994
231.645,-38.4876
231.65,-34.7038
231.655,-30.7847
231.66,-28.2754
231.665,-26.2331
231.67,-23.1531
231.675,-19.6236
231.68,-15.0528
231.685,-8.05921
231.69,-0.953295
231.695,2.82559
231.7,2.17174
231.705,-4.15074
231.71,-16.5083
231.715,-30.8043
231.72,-42.0037
231.725,-49.3547
231.73,-53.7198
231.735,-55.1044
231.74,-55.6106
231.745,-57.7194
231.75,-59.9878
231.755,-61.5398
231.76,-64.0816
231.765,-66.2066
231.77,-63.7379
231.775,-53.9514
231.78,-29.7988
231.785,21.278
231.79,101.071
231.795,190.604
231.8,259.929
231.805,280.357
231.81,241.088
231.815,162.756
231.82,77.7539
231.825,7.54886
231.83,-39.0114
231.835,-61.9089
231.84,-68.8713
231.845,-68.6397
231.85,-65.2593
231.855,-61.423
231.86,-59.5819
231.865,-58.5097
231.87,-55.8949
231.875,-52.4424
231.88,-48.3948
231.885,-42.449
231.89,-35.7269
231.895,-29.8917
231.9,-23.7174
231.905,-16.8253
231.91,-10.8644
231.915,-5.20122
231.92,1.41698
231.925,7.81968
231.93,14.4453
231.935,23.399
231.94,33.7134
231.945,43.8592
231.95,54.9642
231.955,67.0605
231.96,78.6143
231.965,90.2479
231.97,102.502
231.975,113.321
231.98,122.263
231.985,131.131
231.99,138.665
231.995,142.555
232,143.582
232.005,142.305
232.01,137.213
232.015,128.881
232.02,117.989
232.025,102.659
232.03,83.0032
232.035,62.1752
232.04,41.3702
232.045,20.5365
232.05,2.03902
232.055,-12.7165
232.06,-25.3349
232.065,-35.5871
232.07,-42.6411
232.075,-48.2474
232.08,-53.1561
232.085,-56.3894
232.09,-58.5993
232.095,-60.4622
232.1,-60.6597
232.105,-59.246
232.11,-58.1404
232.115,-57.1387
232.12,-55.4076
232.125,-54.3368
232.13,-53.6623
232.135,-51.4793
232.14,-48.867
232.145,-47.6043
232.15,-46.5087
232.155,-44.9954
232.16,-44.5413
232.165,-44.7327
232.17,-43.9573
232.175,-43.1895
232.18,-42.6971
232.185,-41.4597
232.19,-40.614
232.195,-41.3936
232.2,-42.4618
232.205,-43.2653
232.21,-44.7549
232.215,-45.861
232.22,-45.7073
232.225,-45.7691
232.23,-45.6547
232.235,-43.7578
232.24,-41.2197
232.245,-39.0781
232.25,-35.9039
232.255,-31.6482
232.26,-28.4916
232.265,-25.2874
232.27,-19.5531
232.275,-12.0645
232.28,-3.93
232.285,4.48895
232.29,9.95356
232.295,8.91765
232.3,1.54718
232.305,-10.2826
232.31,-24.9087
232.315,-38.4241
232.32,-47.39
232.325,-52.7345
232.33,-55.7391
232.335,-56.2392
232.34,-56.1746
232.345,-57.4461
232.35,-58.9557
232.355,-60.4875
232.36,-62.1176
232.365,-59.5764
232.37,-47.6449
232.375,-19.6018
232.38,34.38
232.385,115.09
232.39,201.945
232.395,263.078
232.4,273.559
232.405,228.617
232.41,148.254
232.415,63.5588
232.42,-2.83445
232.425,-45.0266
232.43,-66.3724
232.435,-72.3973
232.44,-70.4302
232.445,-66.367
232.45,-62.4479
232.455,-59.7376
232.46,-59.0072
232.465,-58.1595
232.47,-55.3828
232.475,-51.9055
232.48,-47.7233
232.485,-41.5797
232.49,-34.6728
232.495,-28.5139
232.5,-21.7846
232.505,-14.2502
232.51,-7.72364
232.515,-1.64494
232.52,5.18642
232.525,11.5149
232.53,17.7901
232.535,26.188
232.54,35.9144
232.545,45.3409
232.55,55.5114
232.555,66.5113
232.56,76.7164
232.565,86.8317
232.57,97.5709
232.575,107.27
232.58,115.476
232.585,122.501
232.59,126.655
232.595,127.154
232.6,125.205
232.605,120.012
232.61,109.924
232.615,95.9394
232.62,79.3686
232.625,59.6491
232.63,38.2197
232.635,18.2218
232.64,0.0780945
232.645,-16.8209
232.65,-30.9609
232.655,-42.312
232.66,-52.5263
232.665,-60.7283
232.67,-66.1366
232.675,-70.8028
232.68,-75.1005
232.685,-77.2702
232.69,-78.2833
232.695,-79.4048
232.7,-79.2603
232.705,-78.1966
232.71,-78.1454
232.715,-77.9385
232.72,-76.2602
232.725,-74.8092
232.73,-73.8648
232.735,-72.0051
232.74,-70.2443
232.745,-69.485
232.75,-68.1181
232.755,-66.0681
232.76,-65.1832
232.765,-64.9424
232.77,-64.1187
232.775,-63.4442
232.78,-62.532
232.785,-60.371
232.79,-58.6378
232.795,-58.7333
232.8,-58.8346
232.805,-58.293
232.81,-58.5446
232.815,-59.1363
232.82,-59.242
232.825,-59.9035
232.83,-60.1067
232.835,-57.5756
232.84,-54.1474
232.845,-51.3585
232.85,-47.8279
232.855,-44.2428
232.86,-42.6851
232.865,-41.6913
232.87,-38.5508
232.875,-33.1186
232.88,-25.3448
232.885,-15.464
232.89,-7.49226
232.895,-5.88799
232.9,-10.8202
232.905,-20.7814
232.91,-34.2244
232.915,-47.3991
232.92,-56.8942
232.925,-63.3497
232.93,-67.608
232.935,-68.6107
232.94,-67.9862
232.945,-68.7749
232.95,-70.4722
232.955,-72.3349
232.96,-75.2133
232.965,-76.1776
232.97,-70.3636
232.975,-54.235
232.98,-18.6123
232.985,45.7207
232.99,132.002
232.995,215.146
233,265.628
233.005,260.989
233.01,202.675
233.015,117.498
233.02,35.6137
233.025,-26.5551
233.03,-64.786
233.035,-81.306
233.04,-83.941
233.045,-81.1498
233.05,-76.5406
233.055,-71.9385
233.06,-69.4484
233.065,-67.9619
233.07,-64.7834
233.075,-60.4138
233.08,-55.8016
233.085,-49.9698
233.09,-43.5087
233.095,-37.8101
233.1,-31.5894
233.105,-24.6473
233.11,-18.8007
233.115,-13.291
233.12,-6.52521
233.125,0.0544485
233.13,5.9102
233.135,13.0502
233.14,21.3346
233.145,29.4604
233.15,38.6171
233.155,49.3773
233.16,60.3024
233.165,71.8956
233.17,85.081
233.175,97.5996
233.18,107.878
233.185,116.731
233.19,123.125
233.195,125.584
233.2,125.509
233.205,123.248
233.21,116.549
233.215,105.512
233.22,91.6205
233.225,74.3972
233.23,54.4836
233.235,34.732
233.24,15.8449
233.245,-2.86382
233.25,-19.8718
233.255,-34.4149
233.26,-47.6535
233.265,-58.6869
233.27,-66.1306
233.275,-71.7495
233.28,-76.4667
233.285,-79.1179
233.29,-80.638
233.295,-82.2911
233.3,-82.8675
233.305,-82.4793
233.31,-82.8218
233.315,-83.2652
233.32,-82.5137
233.325,-82.0062
233.33,-82.1337
233.335,-81.0243
233.34,-79.077
233.345,-77.8599
233.35,-76.1782
233.355,-73.6337
233.36,-72.0863
233.365,-70.9094
233.37,-68.5257
233.375,-66.5369
233.38,-65.8046
233.385,-64.6617
233.39,-63.1909
233.395,-62.7086
233.4,-62.2327
233.405,-61.3318
233.41,-61.7241
233.415,-62.7247
233.42,-62.7388
233.425,-62.9467
233.43,-63.702
233.435,-63.1924
233.44,-61.4031
233.445,-59.247
233.45,-55.9677
233.455,-51.4995
233.46,-47.5904
233.465,-44.0272
233.47,-39.5438
233.475,-35.5149
233.48,-31.9727
233.485,-26.2968
233.49,-18.3694
233.495,-10.5912
233.5,-3.99152
233.505,-0.555207
233.51,-3.69935
233.515,-13.0477
233.52,-25.4806
233.525,-39.3406
233.53,-52.1389
233.535,-60.6506
233.54,-65.3736
233.545,-68.3127
233.55,-69.4123
233.555,-69.5958
233.56,-70.8575
233.565,-72.5575
233.57,-73.6902
233.575,-74.4572
233.58,-71.6771
233.585,-57.9039
233.59,-22.925
233.595,40.7354
233.6,129.091
233.605,218.708
233.61,275.868
233.615,275.773
233.62,220.381
233.625,134.525
233.63,48.6026
233.635,-15.9808
233.64,-54.1242
233.645,-71.3499
233.65,-74.3597
233.655,-70.1994
233.66,-65.2231
233.665,-60.8513
233.67,-56.5686
233.675,-53.7632
233.68,-52.4862
233.685,-50.3619
233.69,-46.9358
233.695,-42.6935
233.7,-36.3448
233.705,-28.5704
233.71,-22.0833
233.715,-16.4425
233.72,-10.1706
233.725,-3.95091
233.73,2.34915
233.735,9.95614
233.74,18.1012
233.745,25.9548
233.75,35.322
233.755,46.1986
233.76,56.4106
233.765,66.6454
233.77,77.9858
233.775,88.819
233.78,98.7802
233.785,109.309
233.79,119.17
233.795,126.701
233.8,133.298
233.805,139.062
233.81,141.476
233.815,140.262
233.82,135.919
233.825,126.55
233.83,111.588
233.835,93.5053
233.84,73.2972
233.845,51.5897
233.85,31.2534
233.855,13.5867
233.86,-2.80655
233.865,-17.4477
233.87,-29.0793
233.875,-38.9859
233.88,-47.4593
233.885,-52.9552
233.89,-56.4206
233.895,-59.509
233.9,-61.4009
233.905,-62.34
233.91,-64.0206
233.915,-65.4333
233.92,-65.2135
233.925,-64.6498
233.93,-63.941
233.935,-61.8988
233.94,-59.7609
233.945,-59.031
233.95,-58.3299
233.955,-57.0479
233.96,-56.2123
233.965,-54.8839
233.97,-52.417
233.975,-50.8423
233.98,-50.534
233.985,-49.9019
233.99,-49.4817
233.995,-49.7074
234,-48.8509
234.005,-47.1854
234.01,-46.8072
234.015,-47.1013
234.02,-46.9437
234.025,-47.47
234.03,-48.4217
234.035,-48.0883
234.04,-47.6021
234.045,-48.442
234.05,-48.6659
234.055,-46.9673
234.06,-44.9412
234.065,-42.2794
234.07,-38.5498
234.075,-35.6308
234.08,-32.9847
234.085,-28.6555
234.09,-23.8802
234.095,-19.653
234.1,-13.6393
234.105,-6.04799
234.11,-0.497564
234.115,1.47188
234.12,-1.36629
234.125,-11.2097
234.13,-25.9127
234.135,-40.3088
234.14,-51.9864
234.145,-60.6836
234.15,-65.2054
234.155,-66.2691
234.16,-66.8496
234.165,-67.412
234.17,-67.4141
234.175,-68.7779
234.18,-71.9549
234.185,-73.5564
234.19,-70.3734
234.195,-58.1428
234.2,-25.1147
234.205,38.5545
234.21,127.663
234.215,219.754
234.22,282.695
234.225,287.911
234.23,233.394
234.235,146.439
234.24,58.2959
234.245,-11.0043
234.25,-53.7795
234.255,-73.5417
234.26,-79.4433
234.265,-78.012
234.27,-73.4094
234.275,-69.6019
234.28,-67.0437
234.285,-63.7286
234.29,-60.0892
234.295,-56.9211
234.3,-52.5914
234.305,-47.0266
234.31,-41.6168
234.315,-35.229
234.32,-27.305
234.325,-20.136
234.33,-13.9992
234.335,-6.96925
234.34,0.50938
234.345,7.68204
234.35,16.2736
234.355,26.1566
234.36,35.3091
234.365,44.5207
234.37,55.0755
234.375,65.6413
234.38,76.1843
234.385,88.2866
234.39,100.701
234.395,111.775
234.4,122.546
234.405,132.522
234.41,139.363
234.415,143.069
234.42,144.022
234.425,140.795
234.43,133.74
234.435,124.582
234.44,112.413
234.445,96.4763
234.45,78.8526
234.455,60.0665
234.46,39.5175
234.465,19.6316
234.47,2.53347
234.475,-13.197
234.48,-27.236
234.485,-37.11
234.49,-43.683
234.495,-48.8283
234.5,-52.0588
234.505,-54.0905
234.51,-56.6745
234.515,-58.5502
234.52,-58.452
234.525,-58.2276
234.53,-57.9541
234.535,-55.928
234.54,-53.391
234.545,-51.7495
234.55,-49.7443
234.555,-47.4675
234.56,-46.3897
234.565,-45.5633
234.57,-43.7874
234.575,-42.4548
234.58,-41.418
234.585,-39.2521
234.59,-37.4226
234.595,-37.1031
234.6,-36.6681
234.605,-35.583
234.61,-35.1665
234.615,-35.0045
234.62,-34.5503
234.625,-34.8313
234.63,-35.6348
234.635,-35.8951
234.64,-36.8584
234.645,-39.2706
234.65,-40.9681
234.655,-41.4116
234.66,-41.452
234.665,-39.4447
234.67,-34.7606
234.675,-29.8853
234.68,-25.3342
234.685,-19.9002
234.69,-14.4708
234.695,-9.58691
234.7,-4.0179
234.705,2.04171
234.71,7.70001
234.715,13.7753
234.72,19.5933
234.725,21.9416
234.73,19.4997
234.735,12.8433
234.74,1.49866
234.745,-13.3141
234.75,-26.7175
234.755,-35.9018
234.76,-41.5599
234.765,-43.9881
234.77,-43.9626
234.775,-44.2301
234.78,-45.3423
234.785,-46.4215
234.79,-49.0251
234.795,-52.98
234.8,-52.7899
234.805,-43.8023
234.81,-20.3844
234.815,28.8355
234.82,107.883
234.825,199.978
234.83,274.341
234.835,301.81
234.84,268.297
234.845,190.054
234.85,100.294
234.855,24.4063
234.86,-27.4034
234.865,-54.1464
234.87,-61.8603
234.875,-60.8101
234.88,-57.0449
234.885,-51.9945
234.89,-47.6828
234.895,-45.0261
234.9,-41.8316
234.905,-37.5965
234.91,-33.486
234.915,-28.6857
234.92,-22.7184
234.925,-17.2925
234.93,-12.0431
234.935,-5.19317
234.94,2.20099
234.945,8.82889
234.95,15.9338
234.955,23.596
234.96,31.3082
234.965,40.6019
234.97,51.7319
234.975,62.2417
234.98,71.7641
234.985,82.5919
234.99,94.8657
234.995,107.362
235,121.012
235.005,135.461
235.01,148.135
235.015,158.882
235.02,168.514
235.025,175.056
235.03,177.339
235.035,176.947
235.04,173.491
235.045,165.283
235.05,152.992
235.055,136.979
235.06,116.867
235.065,95.0843
235.07,73.9885
235.075,52.6738
235.08,31.5407
235.085,13.6334
235.09,-0.682083
235.095,-12.8539
235.1,-22.1499
235.105,-28.7288
235.11,-34.5159
235.115,-38.9334
235.12,-40.5716
235.125,-41.1205
235.13,-41.571
235.135,-40.8455
235.14,-39.7919
235.145,-39.3758
235.15,-38.0211
235.155,-35.77
235.16,-34.5922
235.165,-33.5493
235.17,-31.2711
235.175,-29.2929
235.18,-27.9289
235.185,-25.5999
235.19,-23.2815
235.195,-22.546
235.2,-22.0865
235.205,-21.6712
235.21,-22.7114
235.215,-23.9558
235.22,-23.9019
235.225,-24.1175
235.23,-24.976
235.235,-24.8674
235.24,-24.4162
235.245,-24.9592
235.25,-25.4701
235.255,-25.6777
235.26,-26.7886
235.265,-27.5082
235.27,-25.8624
235.275,-23.2554
235.28,-20.6461
235.285,-16.7629
235.29,-11.895
235.295,-6.80244
235.3,-0.696939
235.305,5.37079
235.31,9.30054
235.315,12.6495
235.32,17.5769
235.325,22.2086
235.33,24.4971
235.335,24.1938
235.34,18.8556
235.345,7.40038
235.35,-6.12631
235.355,-18.4577
235.36,-29.4914
235.365,-37.6878
235.37,-41.8387
235.375,-44.1486
235.38,-46.0737
235.385,-47.0096
235.39,-48.3251
235.395,-51.5795
235.4,-54.791
235.405,-54.4803
235.41,-47.8242
235.415,-27.3822
235.42,19.1782
235.425,96.1034
235.43,191.3
235.435,276.227
235.44,317.134
235.445,294.506
235.45,221.319
235.455,128.886
235.46,44.8034
235.465,-14.5567
235.47,-46.6279
235.475,-59.6344
235.48,-62.16
235.485,-58.8525
235.49,-53.9817
235.495,-50.5428
235.5,-47.677
235.505,-44.6994
235.51,-42.3966
235.515,-39.3929
235.52,-34.4239
235.525,-29.081
235.53,-23.797
235.535,-17.1965
235.54,-10.2053
235.545,-3.95912
235.55,3.09977
235.555,10.8855
235.56,17.7543
235.565,24.7728
235.57,33.3718
235.575,42.3863
235.58,51.7991
235.585,62.8627
235.59,74.5901
235.595,85.5821
235.6,96.6884
235.605,107.847
235.61,117.563
235.615,126.57
235.62,135.807
235.625,143.316
235.63,148.375
235.635,152.11
235.64,152.859
235.645,148.86
235.65,141.309
235.655,130.397
235.66,114.813
235.665,96.2163
235.67,76.7359
235.675,55.6019
235.68,33.7021
235.685,14.1151
235.69,-2.8516
235.695,-17.8024
235.7,-29.153
235.705,-37.2902
235.71,-44.8759
235.715,-51.5453
235.72,-56.1039
235.725,-59.7718
235.73,-62.4574
235.735,-62.9812
235.74,-62.5368
235.745,-62.167
235.75,-60.5834
235.755,-58.083
235.76,-56.7863
235.765,-56.2907
235.77,-55.6389
235.775,-56.1332
235.78,-57.3717
235.785,-57.1899
235.79,-56.3015
235.795,-55.788
235.8,-54.105
235.805,-51.5576
235.81,-50.2287
235.815,-49.4705
235.82,-48.1724
235.825,-47.7163
235.83,-47.9036
235.835,-47.3664
235.84,-47.26
235.845,-48.0426
235.85,-47.8999
235.855,-47.2108
235.86,-47.7511
235.865,-47.8672
235.87,-45.7667
235.875,-42.6698
235.88,-38.979
235.885,-33.6485
235.89,-28.11
235.895,-23.3603
235.9,-17.5253
235.905,-11.1214
235.91,-6.08895
235.915,-0.688512
235.92,6.44609
235.925,12.3803
235.93,15.0612
235.935,14.4904
235.94,8.22456
235.945,-4.68123
235.95,-20.0705
235.955,-34.3178
235.96,-46.3024
235.965,-54.3447
235.97,-58.4564
235.975,-61.6333
235.98,-65.0645
235.985,-67.6078
235.99,-69.9246
235.995,-72.9823
236,-75.112
236.005,-74.0825
236.01,-67.9123
236.015,-49.5732
236.02,-7.03304
236.025,65.1406
236.03,157.058
236.035,242.119
236.04,287.656
236.045,272.551
236.05,206.068
236.055,117.557
236.06,34.8546
236.065,-24.578
236.07,-57.2961
236.075,-70.8223
236.08,-73.4816
236.085,-70.4016
236.09,-66.6289
236.095,-64.7178
236.1,-62.8528
236.105,-59.9248
236.11,-56.9905
236.115,-53.4645
236.12,-48.232
236.125,-42.5723
236.13,-36.6834
236.135,-29.3924
236.14,-22.1875
236.145,-16.1418
236.15,-9.62861
236.155,-2.32659
236.16,4.51068
236.165,11.691
236.17,20.3525
236.175,29.2993
236.18,38.9712
236.185,50.547
236.19,62.5752
236.195,73.852
236.2,86.0764
236.205,99.1384
236.21,110.763
236.215,121.338
236.22,131.186
236.225,138.128
236.23,141.854
236.235,143.656
236.24,142.136
236.245,136.589
236.25,129.004
236.255,119.36
236.26,105.909
236.265,89.3322
236.27,71.0734
236.275,51.1387
236.28,30.9934
236.285,13.3496
236.29,-1.9803
236.295,-16.024
236.3,-27.449
236.305,-36.1609
236.31,-43.6798
236.315,-48.9413
236.32,-51.4106
236.325,-53.4154
236.33,-55.1917
236.335,-55.2424
236.34,-54.6668
236.345,-54.7824
236.35,-53.9456
236.355,-51.6737
236.36,-49.7163
236.365,-47.5765
236.37,-44.6609
236.375,-43.0366
236.38,-42.6216
236.385,-41.2523
236.39,-39.6701
236.395,-38.9351
236.4,-37.5624
236.405,-35.621
236.41,-34.7938
236.415,-34.2133
236.42,-33.1437
236.425,-33.2765
236.43,-34.2121
236.435,-34.4385
236.44,-35.1068
236.445,-36.8539
236.45,-37.5676
236.455,-36.8827
236.46,-35.9578
236.465,-33.8162
236.47,-29.8956
236.475,-25.6444
236.48,-21.3006
236.485,-15.8217
236.49,-10.6503
236.495,-6.97937
236.5,-2.45832
236.505,4.1293
236.51,11.6386
236.515,19.3034
236.52,24.726
236.525,23.9225
236.53,16.0742
236.535,4.39422
236.54,-8.84467
236.545,-21.5506
236.55,-30.312
236.555,-35.0449
236.56,-38.1571
236.565,-39.5915
236.57,-39.6343
236.575,-40.6237
236.58,-42.6228
236.585,-44.3546
236.59,-46.2786
236.595,-45.6814
236.6,-36.7034
236.605,-12.8185
236.61,34.291
236.615,108.04
236.62,193.205
236.625,259.334
236.63,279.247
236.635,244.431
236.64,171.332
236.645,88.3314
236.65,19.5636
236.655,-25.6123
236.66,-49.703
236.665,-57.8347
236.67,-56.4517
236.675,-52.8689
236.68,-49.8803
236.685,-47.0268
236.69,-45.2934
236.695,-44.7083
236.7,-42.7217
236.705,-39.0721
236.71,-35.4492
236.715,-30.886
236.72,-24.575
236.725,-18.4396
236.73,-12.8387
236.735,-6.35748
236.74,0.00780664
236.745,5.54259
236.75,11.8359
236.755,18.6492
236.76,24.7613
236.765,31.9633
236.77,41.3404
236.775,51.1296
236.78,61.3557
236.785,73.1709
236.79,85.2278
236.795,96.6382
236.8,108.719
236.805,120.323
236.81,129.078
236.815,135.745
236.82,140.572
236.825,141.274
236.83,137.518
236.835,130.776
236.84,120.158
236.845,105.377
236.85,88.418
236.855,69.6708
236.86,48.8587
236.865,28.187
236.87,9.20478
236.875,-8.9973
236.88,-25.4018
236.885,-37.9346
236.89,-47.6084
236.895,-55.6388
236.9,-61.1307
236.905,-64.745
236.91,-68.7423
236.915,-72.4807
236.92,-74.3341
236.925,-75.4466
236.93,-76.3977
236.935,-75.7209
236.94,-74.1326
236.945,-73.0941
236.95,-71.5483
236.955,-69.6354
236.96,-69.1474
236.965,-69.3334
236.97,-68.7147
236.975,-68.263
236.98,-67.9541
236.985,-66.3287
236.99,-64.5096
236.995,-64.0634
237,-63.5503
237.005,-62.4286
237.01,-62.2517
237.015,-62.3546
237.02,-61.5879
237.025,-61.4621
237.03,-62.5236
237.035,-63.1737
237.04,-63.5827
237.045,-64.0422
237.05,-62.5309
237.055,-58.9635
237.06,-55.2454
237.065,-51.4956
237.07,-47.5748
237.075,-44.6527
237.08,-42.6302
237.085,-39.5367
237.09,-34.9853
237.095,-29.0801
237.1,-21.1237
237.105,-13.1456
237.11,-9.41506
237.115,-11.546
237.12,-19.653
237.125,-33.2593
237.13,-48.7394
237.135,-60.9467
237.14,-68.9544
237.145,-74.308
237.15,-76.9209
237.155,-77.8214
237.16,-79.6132
237.165,-81.9839
237.17,-83.7545
237.175,-86.0336
237.18,-87.3499
237.185,-82.7806
237.19,-69.0532
237.195,-38.5369
237.2,20.4973
237.205,106.474
237.21,196.266
237.215,258.767
237.22,268.3
237.225,219.578
237.23,136.176
237.235,50.5959
237.24,-17.0448
237.245,-60.7838
237.25,-81.9218
237.255,-87.4315
237.26,-86.4013
237.265,-83.4532
237.27,-79.8116
237.275,-77.3078
237.28,-75.7489
237.285,-72.8658
237.29,-68.6465
237.295,-63.7489
237.3,-57.1615
237.305,-49.5557
237.31,-42.9049
237.315,-36.447
237.32,-29.2746
237.325,-22.8887
237.33,-17.3196
237.335,-10.6685
237.34,-3.37852
237.345,3.60132
237.35,12.0487
237.355,22.3076
237.36,32.6957
237.365,43.8976
237.37,56.8577
237.375,69.8199
237.38,82.3659
237.385,95.6573
237.39,108.234
237.395,118.043
237.4,125.964
237.405,131.982
237.41,134.649
237.415,134.798
237.42,133.02
237.425,127.182
237.43,116.697
237.435,103.166
237.44,86.321
237.445,66.001
237.45,45.0801
237.455,25.0516
237.46,5.36823
237.465,-12.4576
237.47,-26.7069
237.475,-38.3193
237.48,-47.6882
237.485,-54.2576
237.49,-59.6631
237.495,-65.2987
